Method:,erol,,
Host Date-Time:,7/12/23 @ 13:46:41,,
Header Version:,1,,
System Temp (C):,37.84,,
Detector Temp (C):,23.38,,
Humidity (%):,21.82,,
Lamp PD:,3532,,
Shift Vector Coefficients:,-4.80707,0.053312,-0.000138677,,
Pixel to Wavelength Coefficients:,1763.6,-0.910608,-0.000244451,,
Serial Number:,6110061,,
Scan Config Name:,erol,,
Scan Config Type:,Slew,,
Section 1,,
Start wavelength (nm):,900,,
End wavelength (nm):,1700,,
Pattern Pixel Width (nm):,  11.71,,,,
Exposure (ms):,  0.635,,,,
Digital Resolution:,228,,
Num Repeats:,1,,
PGA Gain:,64,,
Total Measurement Time in sec:,  1.592,,
Wavelength (nm),Absorbance (AU),Reference Signal (unitless),Sample Signal (unitless)
901.370984,-0.337981,22318.000000,48600.000000
905.248306,-0.318934,26694.000000,55635.000000
909.121227,-0.323544,30240.000000,63698.000000
912.989749,-0.296922,35053.000000,69446.000000
918.140932,-0.300257,39668.000000,79195.000000
921.999187,-0.293783,44171.000000,86880.000000
925.853041,-0.295614,49463.000000,97700.000000
929.702495,-0.300490,55176.000000,110215.000000
933.547549,-0.295061,62603.000000,123497.000000
937.388203,-0.292106,70557.000000,138244.000000
941.224457,-0.289702,79215.000000,154351.000000
946.332618,-0.282258,90003.000000,172391.000000
950.158605,-0.282433,97001.000000,185870.000000
953.980191,-0.280140,104340.000000,198880.000000
957.797378,-0.274990,111157.000000,209376.000000
961.610165,-0.276246,117414.000000,221802.000000
965.418551,-0.274225,124361.000000,233835.000000
969.222537,-0.272661,131496.000000,246362.000000
974.287675,-0.273114,140925.000000,264303.000000
978.081394,-0.274070,148023.000000,278227.000000
981.870713,-0.271995,155197.000000,290321.000000
985.655632,-0.274261,162010.000000,304651.000000
989.436151,-0.271159,170019.000000,317436.000000
993.212270,-0.271775,176266.000000,329567.000000
998.240251,-0.270284,184964.000000,344644.000000
1002.006103,-0.267606,190519.000000,352813.000000
1005.767554,-0.265534,196102.000000,361423.000000
1009.524606,-0.266653,200098.000000,369739.000000
1013.277258,-0.262495,204164.000000,373658.000000
1017.025509,-0.262847,206631.000000,378480.000000
1020.769360,-0.260375,209246.000000,381094.000000
1025.754318,-0.257371,211932.000000,383325.000000
1029.487902,-0.256213,213316.000000,384801.000000
1033.217086,-0.254588,213821.000000,384272.000000
1036.941870,-0.253806,213615.000000,383211.000000
1040.662255,-0.253832,213930.000000,383799.000000
1044.378238,-0.251488,213905.000000,381688.000000
1048.089822,-0.248518,213173.000000,377790.000000
1053.031756,-0.247143,211884.000000,374318.000000
1056.733073,-0.246198,211098.000000,372119.000000
1060.429990,-0.246666,209880.000000,370371.000000
1064.122506,-0.245307,209078.000000,367803.000000
1067.810623,-0.242946,208224.000000,364315.000000
1071.494339,-0.242810,206922.000000,361923.000000
1076.399116,-0.241548,206676.000000,360444.000000
1080.072566,-0.240872,206200.000000,359055.000000
1083.741615,-0.240145,205636.000000,357474.000000
1087.406264,-0.238560,205874.000000,356584.000000
1091.066513,-0.235939,205797.000000,354306.000000
1094.722362,-0.237787,205514.000000,355327.000000
1098.373811,-0.237040,205628.000000,354913.000000
1103.235565,-0.233271,206788.000000,353831.000000
1106.876747,-0.233294,206389.000000,353167.000000
1110.513529,-0.232489,206615.000000,352899.000000
1114.145910,-0.234084,206738.000000,354409.000000
1117.773892,-0.232879,206547.000000,353100.000000
1121.397473,-0.231876,207088.000000,353208.000000
1125.016654,-0.233425,206464.000000,353402.000000
1129.835385,-0.231488,207418.000000,353455.000000
1133.444299,-0.229631,207695.000000,352417.000000
1137.048813,-0.230281,208493.000000,354301.000000
1140.648927,-0.230657,208223.000000,354149.000000
1144.244641,-0.230482,208337.000000,354200.000000
1147.835955,-0.229994,208774.000000,354544.000000
1152.617529,-0.232600,208238.000000,355762.000000
1156.198576,-0.231920,208484.000000,355625.000000
1159.775223,-0.231028,208962.000000,355709.000000
1163.347470,-0.231825,209317.000000,356968.000000
1166.915316,-0.232024,209935.000000,358186.000000
1170.478763,-0.228354,211435.000000,357710.000000
1174.037809,-0.227924,213105.000000,360178.000000
1178.776359,-0.227501,214394.000000,362004.000000
1182.325139,-0.222904,217962.000000,364154.000000
1185.869518,-0.222065,220075.000000,366974.000000
1189.409497,-0.222454,222694.000000,371674.000000
1192.945076,-0.219678,224594.000000,372457.000000
1196.476255,-0.220295,226828.000000,376697.000000
1200.003034,-0.217950,229675.000000,379371.000000
1204.698561,-0.220015,232729.000000,386247.000000
1208.215073,-0.219582,235830.000000,391004.000000
1211.727185,-0.219522,238631.000000,395593.000000
1215.234896,-0.219641,241974.000000,401245.000000
1218.738208,-0.220419,245450.000000,407739.000000
1222.237119,-0.219665,248996.000000,412912.000000
1226.895489,-0.219467,254001.000000,421020.000000
1230.384134,-0.219866,257796.000000,427703.000000
1233.868378,-0.221692,261030.000000,434893.000000
1237.348222,-0.222155,264910.000000,441828.000000
1240.823666,-0.221440,269187.000000,448223.000000
1244.294710,-0.221485,274535.000000,457175.000000
1247.761354,-0.222039,278817.000000,464899.000000
1252.376701,-0.221403,285943.000000,476083.000000
1255.833078,-0.221868,292339.000000,487253.000000
1259.285055,-0.221514,298387.000000,496929.000000
1262.732632,-0.221974,303484.000000,505952.000000
1266.175808,-0.222309,308643.000000,514950.000000
1269.614584,-0.221747,313923.000000,523083.000000
1273.048961,-0.221438,319097.000000,531326.000000
1277.621284,-0.222748,324380.000000,541754.000000
1281.045394,-0.220910,329793.000000,548468.000000
1284.465103,-0.221480,333450.000000,555278.000000
1287.880412,-0.221903,337104.000000,561910.000000
1291.291321,-0.221805,340768.000000,567889.000000
1294.697830,-0.221493,344605.000000,573871.000000
1299.232997,-0.220592,349244.000000,580392.000000
1302.629239,-0.220965,352441.000000,586207.000000
1306.021081,-0.220731,355144.000000,590385.000000
1309.408522,-0.219822,357732.000000,593444.000000
1312.791564,-0.218685,360160.000000,595910.000000
1316.170205,-0.220443,362173.000000,601671.000000
1319.544447,-0.219467,364403.000000,604017.000000
1324.036591,-0.220033,366317.000000,607981.000000
1327.400565,-0.222375,366589.000000,611723.000000
1330.760139,-0.220716,368623.000000,612772.000000
1334.115313,-0.222222,368498.000000,614691.000000
1337.466087,-0.221020,370046.000000,615568.000000
1340.812461,-0.221206,370709.000000,616934.000000
1344.154435,-0.220924,371502.000000,617853.000000
1348.603555,-0.220981,371615.000000,618122.000000
1351.935262,-0.221209,370997.000000,617418.000000
1355.262569,-0.218077,371791.000000,614294.000000
1358.585475,-0.218434,370879.000000,613291.000000
1361.903982,-0.217870,370539.000000,611933.000000
1365.218088,-0.215683,371657.000000,610697.000000
1369.630052,-0.214566,372397.000000,610341.000000
1372.933891,-0.212380,372524.000000,607483.000000
1376.233331,-0.211422,372314.000000,605803.000000
1379.528370,-0.211603,371243.000000,604312.000000
1382.819009,-0.212522,369231.000000,602310.000000
1386.105248,-0.212347,367705.000000,599579.000000
1389.387087,-0.211664,367073.000000,597608.000000
1393.756027,-0.211184,365715.000000,594740.000000
1397.027599,-0.210232,365152.000000,592523.000000
1400.294771,-0.208648,365097.000000,590277.000000
1403.557542,-0.208534,364333.000000,588888.000000
1406.815914,-0.205679,365413.000000,586763.000000
1410.069885,-0.203191,365734.000000,583924.000000
1413.319456,-0.201614,364947.000000,580556.000000
1417.645373,-0.197063,365539.000000,575436.000000
1420.884678,-0.194118,365230.000000,571064.000000
1424.119582,-0.191595,365533.000000,568227.000000
1427.350086,-0.189326,364906.000000,564296.000000
1430.576190,-0.186142,365583.000000,561213.000000
1433.797894,-0.184065,365648.000000,558635.000000
1437.015198,-0.182375,365698.000000,556542.000000
1441.298091,-0.181824,364890.000000,554608.000000
1444.505128,-0.180796,364741.000000,553070.000000
1447.707765,-0.179041,364393.000000,550314.000000
1450.906001,-0.178190,363044.000000,547204.000000
1454.099838,-0.177280,362635.000000,545443.000000
1457.289274,-0.175785,361653.000000,542097.000000
1461.535011,-0.174043,360303.000000,537911.000000
1464.714180,-0.173800,358064.000000,534270.000000
1467.888950,-0.171083,356949.000000,529284.000000
1471.059319,-0.168971,355912.000000,525187.000000
1474.225288,-0.167698,353737.000000,520449.000000
1477.386857,-0.165437,352477.000000,515903.000000
1480.544025,-0.165007,349693.000000,511321.000000
1484.746739,-0.163797,347943.000000,507347.000000
1487.893641,-0.164030,344781.000000,503006.000000
1491.036142,-0.164463,342531.000000,500222.000000
1494.174244,-0.164715,340170.000000,497063.000000
1497.307945,-0.163951,337701.000000,492587.000000
1500.437247,-0.165223,334446.000000,489270.000000
1503.562148,-0.166033,331876.000000,486417.000000
1507.721838,-0.166818,327918.000000,481485.000000
1510.836473,-0.167961,324967.000000,478410.000000
1513.946707,-0.170610,321718.000000,476525.000000
1517.052541,-0.169438,319073.000000,471333.000000
1520.153975,-0.169718,315575.000000,466467.000000
1523.251008,-0.172617,311252.000000,463158.000000
1527.373542,-0.172913,306492.000000,456386.000000
1530.460309,-0.173305,302471.000000,450805.000000
1533.542676,-0.173266,298873.000000,445403.000000
1536.620642,-0.174047,294593.000000,439814.000000
1539.694209,-0.175613,290524.000000,435306.000000
1542.763375,-0.176201,285805.000000,428816.000000
1545.828141,-0.176400,281854.000000,423082.000000
1549.907652,-0.179772,274841.000000,415770.000000
1552.962151,-0.180396,270515.000000,409815.000000
1556.012250,-0.182303,265203.000000,403535.000000
1559.057949,-0.184101,260042.000000,397324.000000
1562.099248,-0.184484,255973.000000,391452.000000
1565.136147,-0.187536,250523.000000,385819.000000
1568.168646,-0.188055,245616.000000,378714.000000
1572.205133,-0.189915,238774.000000,369745.000000
1575.227365,-0.191793,234179.000000,364201.000000
1578.245196,-0.193602,228934.000000,357530.000000
1581.258628,-0.195924,223478.000000,350880.000000
1584.267659,-0.196905,218239.000000,343429.000000
1587.272290,-0.198483,213357.000000,336969.000000
1591.271621,-0.201056,206678.000000,328360.000000
1594.265985,-0.205396,200655.000000,321993.000000
1597.255949,-0.206712,196105.000000,315646.000000
1600.241513,-0.210658,191413.000000,310906.000000
1603.222677,-0.213472,186271.000000,304521.000000
1606.199441,-0.216403,181567.000000,298841.000000
1609.171805,-0.218641,176656.000000,292260.000000
1613.128112,-0.223004,170106.000000,284265.000000
1616.090209,-0.226532,165195.000000,278310.000000
1619.047905,-0.228579,160661.000000,271950.000000
1622.001202,-0.234111,154762.000000,265323.000000
1624.950098,-0.238652,149284.000000,258622.000000
1627.894595,-0.244953,144304.000000,253648.000000
1630.834691,-0.249758,138573.000000,246284.000000
1634.747975,-0.258031,131373.000000,237978.000000
1637.677804,-0.262664,126061.000000,230805.000000
1640.603233,-0.273447,120043.000000,225312.000000
1643.524262,-0.279658,114222.000000,217474.000000
1646.440891,-0.286133,109595.000000,211799.000000
1649.353120,-0.292068,104146.000000,204038.000000
1653.229247,-0.282192,102337.000000,195986.000000
1656.131209,-0.276815,100118.000000,189377.000000
1659.028770,-0.282763,95076.000000,182320.000000
1661.921932,-0.268448,93881.000000,174191.000000
1664.810693,-0.268274,90392.000000,167650.000000
1667.695055,-0.264491,85969.000000,158064.000000
1670.575016,-0.260746,82225.000000,149882.000000
1674.408120,-0.232179,78925.000000,134708.000000
1677.277814,-inf,0.000000,123109.000000
1680.143108,-inf,0.000000,110505.000000
1683.004002,nan,-2147483648.000000,95807.000000
1685.860496,nan,-2147483648.000000,80653.000000
1688.712590,nan,-2147483648.000000,68955.000000
1691.560283,nan,-2147483648.000000,57580.000000
1695.350364,nan,-2147483648.000000,45734.000000
1698.187790,nan,-2147483648.000000,38154.000000
1701.020817,-inf,0.000000,33049.000000
