Method:,erol,,
Host Date-Time:,7/12/23 @ 13:44:38,,
Header Version:,1,,
System Temp (C):,37.65,,
Detector Temp (C):,22.07,,
Humidity (%):,22.05,,
Lamp PD:,3587,,
Shift Vector Coefficients:,-4.80707,0.053312,-0.000138677,,
Pixel to Wavelength Coefficients:,1763.6,-0.910608,-0.000244451,,
Serial Number:,6110061,,
Scan Config Name:,erol,,
Scan Config Type:,Slew,,
Section 1,,
Start wavelength (nm):,900,,
End wavelength (nm):,1700,,
Pattern Pixel Width (nm):,  11.71,,,,
Exposure (ms):,  0.635,,,,
Digital Resolution:,228,,
Num Repeats:,1,,
PGA Gain:,64,,
Total Measurement Time in sec:,  1.656,,
Wavelength (nm),Absorbance (AU),Reference Signal (unitless),Sample Signal (unitless)
901.370984,-0.259486,22318.000000,40564.000000
905.248306,-0.257264,26694.000000,48270.000000
909.121227,-0.249926,30240.000000,53766.000000
912.989749,-0.221509,35053.000000,58376.000000
918.140932,-0.218834,39668.000000,65656.000000
921.999187,-0.210600,44171.000000,71736.000000
925.853041,-0.211461,49463.000000,80490.000000
929.702495,-0.207918,55176.000000,89057.000000
933.547549,-0.200944,62603.000000,99435.000000
937.388203,-0.204654,70557.000000,113030.000000
941.224457,-0.195957,79215.000000,124384.000000
946.332618,-0.190535,90003.000000,139570.000000
950.158605,-0.189344,97001.000000,150010.000000
953.980191,-0.182233,104340.000000,158739.000000
957.797378,-0.183128,111157.000000,169459.000000
961.610165,-0.180263,117414.000000,177821.000000
965.418551,-0.180159,124361.000000,188297.000000
969.222537,-0.177103,131496.000000,197704.000000
974.287675,-0.176825,140925.000000,211745.000000
978.081394,-0.179659,148023.000000,223866.000000
981.870713,-0.178843,155197.000000,234275.000000
985.655632,-0.179897,162010.000000,245154.000000
989.436151,-0.179268,170019.000000,256901.000000
993.212270,-0.180001,176266.000000,266790.000000
998.240251,-0.180241,184964.000000,280110.000000
1002.006103,-0.179834,190519.000000,288252.000000
1005.767554,-0.178706,196102.000000,295929.000000
1009.524606,-0.178105,200098.000000,301542.000000
1013.277258,-0.178233,204164.000000,307760.000000
1017.025509,-0.176764,206631.000000,310427.000000
1020.769360,-0.176952,209246.000000,314492.000000
1025.754318,-0.175907,211932.000000,317763.000000
1029.487902,-0.173790,213316.000000,318283.000000
1033.217086,-0.172719,213821.000000,318251.000000
1036.941870,-0.173649,213615.000000,318626.000000
1040.662255,-0.171688,213930.000000,317658.000000
1044.378238,-0.171661,213905.000000,317601.000000
1048.089822,-0.170386,213173.000000,315586.000000
1053.031756,-0.169841,211884.000000,313285.000000
1056.733073,-0.168964,211098.000000,311493.000000
1060.429990,-0.168052,209880.000000,309046.000000
1064.122506,-0.166803,209078.000000,306981.000000
1067.810623,-0.165352,208224.000000,304707.000000
1071.494339,-0.167411,206922.000000,304241.000000
1076.399116,-0.164184,206676.000000,301630.000000
1080.072566,-0.163786,206200.000000,300659.000000
1083.741615,-0.164776,205636.000000,300521.000000
1087.406264,-0.162586,205874.000000,299356.000000
1091.066513,-0.162956,205797.000000,299499.000000
1094.722362,-0.165533,205514.000000,300867.000000
1098.373811,-0.164247,205628.000000,300144.000000
1103.235565,-0.159646,206788.000000,298656.000000
1106.876747,-0.163354,206389.000000,300636.000000
1110.513529,-0.162376,206615.000000,300288.000000
1114.145910,-0.162220,206738.000000,300359.000000
1117.773892,-0.161950,206547.000000,299895.000000
1121.397473,-0.158377,207088.000000,298217.000000
1125.016654,-0.161955,206464.000000,299778.000000
1129.835385,-0.160758,207418.000000,300334.000000
1133.444299,-0.159946,207695.000000,300173.000000
1137.048813,-0.156706,208493.000000,299087.000000
1140.648927,-0.156734,208223.000000,298719.000000
1144.244641,-0.157469,208337.000000,299389.000000
1147.835955,-0.155684,208774.000000,298786.000000
1152.617529,-0.156848,208238.000000,298819.000000
1156.198576,-0.158384,208484.000000,300232.000000
1159.775223,-0.156885,208962.000000,299883.000000
1163.347470,-0.155247,209317.000000,299262.000000
1166.915316,-0.152902,209935.000000,298529.000000
1170.478763,-0.150793,211435.000000,299206.000000
1174.037809,-0.149361,213105.000000,300576.000000
1178.776359,-0.147231,214394.000000,300915.000000
1182.325139,-0.142745,217962.000000,302779.000000
1185.869518,-0.140190,220075.000000,303921.000000
1189.409497,-0.137455,222694.000000,305607.000000
1192.945076,-0.140172,224594.000000,310149.000000
1196.476255,-0.137528,226828.000000,311333.000000
1200.003034,-0.134787,229675.000000,313257.000000
1204.698561,-0.135567,232729.000000,317993.000000
1208.215073,-0.135587,235830.000000,322245.000000
1211.727185,-0.135016,238631.000000,325644.000000
1215.234896,-0.134047,241974.000000,329470.000000
1218.738208,-0.135990,245450.000000,335701.000000
1222.237119,-0.132562,248996.000000,337874.000000
1226.895489,-0.134691,254001.000000,346359.000000
1230.384134,-0.134063,257796.000000,351026.000000
1233.868378,-0.134719,261030.000000,355967.000000
1237.348222,-0.135693,264910.000000,362069.000000
1240.823666,-0.135938,269187.000000,368122.000000
1244.294710,-0.134874,274535.000000,374517.000000
1247.761354,-0.136335,278817.000000,381640.000000
1252.376701,-0.137651,285943.000000,392582.000000
1255.833078,-0.136997,292339.000000,400759.000000
1259.285055,-0.138255,298387.000000,410237.000000
1262.732632,-0.138832,303484.000000,417799.000000
1266.175808,-0.139923,308643.000000,425970.000000
1269.614584,-0.140436,313923.000000,433770.000000
1273.048961,-0.139600,319097.000000,440071.000000
1277.621284,-0.142452,324380.000000,450304.000000
1281.045394,-0.142387,329793.000000,457750.000000
1284.465103,-0.144775,333450.000000,465378.000000
1287.880412,-0.144786,337104.000000,470490.000000
1291.291321,-0.144912,340768.000000,475741.000000
1294.697830,-0.144907,344605.000000,481092.000000
1299.232997,-0.146167,349244.000000,488985.000000
1302.629239,-0.145786,352441.000000,493029.000000
1306.021081,-0.147287,355144.000000,498530.000000
1309.408522,-0.145952,357732.000000,500622.000000
1312.791564,-0.146958,360160.000000,505189.000000
1316.170205,-0.146761,362173.000000,507782.000000
1319.544447,-0.146941,364403.000000,511120.000000
1324.036591,-0.148874,366317.000000,516097.000000
1327.400565,-0.150259,366589.000000,518130.000000
1330.760139,-0.150274,368623.000000,521022.000000
1334.115313,-0.151459,368498.000000,522269.000000
1337.466087,-0.151327,370046.000000,524304.000000
1340.812461,-0.152165,370709.000000,526257.000000
1344.154435,-0.151676,371502.000000,526790.000000
1348.603555,-0.151686,371615.000000,526962.000000
1351.935262,-0.152012,370997.000000,526481.000000
1355.262569,-0.151132,371791.000000,526539.000000
1358.585475,-0.150912,370879.000000,524982.000000
1361.903982,-0.150208,370539.000000,523651.000000
1365.218088,-0.147841,371657.000000,522376.000000
1369.630052,-0.146042,372397.000000,521253.000000
1372.933891,-0.144413,372524.000000,519478.000000
1376.233331,-0.145910,372314.000000,520978.000000
1379.528370,-0.143658,371243.000000,516792.000000
1382.819009,-0.144895,369231.000000,515458.000000
1386.105248,-0.146126,367705.000000,514784.000000
1389.387087,-0.144216,367073.000000,511645.000000
1393.756027,-0.144682,365715.000000,510299.000000
1397.027599,-0.144358,365152.000000,509134.000000
1400.294771,-0.141058,365097.000000,505203.000000
1403.557542,-0.141876,364333.000000,505097.000000
1406.815914,-0.138669,365413.000000,502867.000000
1410.069885,-0.136297,365734.000000,500567.000000
1413.319456,-0.135438,364947.000000,498503.000000
1417.645373,-0.130484,365539.000000,493648.000000
1420.884678,-0.128227,365230.000000,490675.000000
1424.119582,-0.125058,365533.000000,487511.000000
1427.350086,-0.123209,364906.000000,484607.000000
1430.576190,-0.120227,365583.000000,482184.000000
1433.797894,-0.117848,365648.000000,479635.000000
1437.015198,-0.115735,365698.000000,477373.000000
1441.298091,-0.115893,364890.000000,476491.000000
1444.505128,-0.113434,364741.000000,473607.000000
1447.707765,-0.112734,364393.000000,472394.000000
1450.906001,-0.112694,363044.000000,470601.000000
1454.099838,-0.110497,362635.000000,467699.000000
1457.289274,-0.109541,361653.000000,465407.000000
1461.535011,-0.107558,360303.000000,461558.000000
1464.714180,-0.106922,358064.000000,458018.000000
1467.888950,-0.105337,356949.000000,454929.000000
1471.059319,-0.103200,355912.000000,451380.000000
1474.225288,-0.102600,353737.000000,448003.000000
1477.386857,-0.100126,352477.000000,443871.000000
1480.544025,-0.100022,349693.000000,440260.000000
1484.746739,-0.098879,347943.000000,436905.000000
1487.893641,-0.099930,344781.000000,433984.000000
1491.036142,-0.098530,342531.000000,429764.000000
1494.174244,-0.098798,340170.000000,427065.000000
1497.307945,-0.098819,337701.000000,423986.000000
1500.437247,-0.100095,334446.000000,421135.000000
1503.562148,-0.101120,331876.000000,418886.000000
1507.721838,-0.102862,327918.000000,415554.000000
1510.836473,-0.102260,324967.000000,411244.000000
1513.946707,-0.104334,321718.000000,409081.000000
1517.052541,-0.102907,319073.000000,404387.000000
1520.153975,-0.105038,315575.000000,401921.000000
1523.251008,-0.106877,311252.000000,398097.000000
1527.373542,-0.107877,306492.000000,392913.000000
1530.460309,-0.106452,302471.000000,386488.000000
1533.542676,-0.106417,298873.000000,381860.000000
1536.620642,-0.107132,294593.000000,377011.000000
1539.694209,-0.107850,290524.000000,372419.000000
1542.763375,-0.109162,285805.000000,367478.000000
1545.828141,-0.110036,281854.000000,363128.000000
1549.907652,-0.110863,274841.000000,354768.000000
1552.962151,-0.111607,270515.000000,349783.000000
1556.012250,-0.112308,265203.000000,343468.000000
1559.057949,-0.115699,260042.000000,339424.000000
1562.099248,-0.115336,255973.000000,333834.000000
1565.136147,-0.115837,250523.000000,327103.000000
1568.168646,-0.117342,245616.000000,321809.000000
1572.205133,-0.119596,238774.000000,314473.000000
1575.227365,-0.120412,234179.000000,309001.000000
1578.245196,-0.120124,228934.000000,301880.000000
1581.258628,-0.123336,223478.000000,296873.000000
1584.267659,-0.123611,218239.000000,290097.000000
1587.272290,-0.126288,213357.000000,285361.000000
1591.271621,-0.127181,206678.000000,276997.000000
1594.265985,-0.130258,200655.000000,270837.000000
1597.255949,-0.130577,196105.000000,264890.000000
1600.241513,-0.132925,191413.000000,259954.000000
1603.222677,-0.134704,186271.000000,254009.000000
1606.199441,-0.136861,181567.000000,248827.000000
1609.171805,-0.139520,176656.000000,243584.000000
1613.128112,-0.141679,170106.000000,235721.000000
1616.090209,-0.146910,165195.000000,231690.000000
1619.047905,-0.145277,160661.000000,224485.000000
1622.001202,-0.152399,154762.000000,219818.000000
1624.950098,-0.155515,149284.000000,213564.000000
1627.894595,-0.156383,144304.000000,206853.000000
1630.834691,-0.163247,138573.000000,201802.000000
1634.747975,-0.170413,131373.000000,194500.000000
1637.677804,-0.174306,126061.000000,188316.000000
1640.603233,-0.181331,120043.000000,182250.000000
1643.524262,-0.187874,114222.000000,176045.000000
1646.440891,-0.193977,109595.000000,171304.000000
1649.353120,-0.201515,104146.000000,165637.000000
1653.229247,-0.188228,102337.000000,157856.000000
1656.131209,-0.179034,100118.000000,151198.000000
1659.028770,-0.185523,95076.000000,145745.000000
1661.921932,-0.173445,93881.000000,139966.000000
1664.810693,-0.166891,90392.000000,132746.000000
1667.695055,-0.166700,85969.000000,126195.000000
1670.575016,-0.159919,82225.000000,118829.000000
1674.408120,-0.129825,78925.000000,106424.000000
1677.277814,-inf,0.000000,96253.000000
1680.143108,-inf,0.000000,85756.000000
1683.004002,nan,-2147483648.000000,73383.000000
1685.860496,nan,-2147483648.000000,63178.000000
1688.712590,nan,-2147483648.000000,53618.000000
1691.560283,nan,-2147483648.000000,43789.000000
1695.350364,nan,-2147483648.000000,35232.000000
1698.187790,nan,-2147483648.000000,29424.000000
1701.020817,-inf,0.000000,25627.000000
