Method:,erol,,
Host Date-Time:,7/12/23 @ 14:21:0,,
Header Version:,1,,
System Temp (C):,40.43,,
Detector Temp (C):,27.9,,
Humidity (%):,16.26,,
Lamp PD:,3583,,
Shift Vector Coefficients:,-4.80707,0.053312,-0.000138677,,
Pixel to Wavelength Coefficients:,1763.6,-0.910608,-0.000244451,,
Serial Number:,6110061,,
Scan Config Name:,erol,,
Scan Config Type:,Slew,,
Section 1,,
Start wavelength (nm):,900,,
End wavelength (nm):,1700,,
Pattern Pixel Width (nm):,  11.71,,,,
Exposure (ms):,  0.635,,,,
Digital Resolution:,228,,
Num Repeats:,1,,
PGA Gain:,64,,
Total Measurement Time in sec:,  1.643,,
Wavelength (nm),Absorbance (AU),Reference Signal (unitless),Sample Signal (unitless)
901.370984,-0.781231,22318.000000,134861.000000
905.248306,-0.774333,26694.000000,158762.000000
909.121227,-0.765932,30240.000000,176406.000000
912.989749,-0.740249,35053.000000,192741.000000
918.140932,-0.733703,39668.000000,214854.000000
921.999187,-0.728167,44171.000000,236213.000000
925.853041,-0.720364,49463.000000,259803.000000
929.702495,-0.721967,55176.000000,290882.000000
933.547549,-0.715473,62603.000000,325138.000000
937.388203,-0.710040,70557.000000,361893.000000
941.224457,-0.704495,79215.000000,401146.000000
946.332618,-0.697583,90003.000000,448580.000000
950.158605,-0.694293,97001.000000,479810.000000
953.980191,-0.688626,104340.000000,509421.000000
957.797378,-0.683833,111157.000000,536747.000000
961.610165,-0.683133,117414.000000,566048.000000
965.418551,-0.680107,124361.000000,595376.000000
969.222537,-0.676307,131496.000000,624050.000000
974.287675,-0.674476,140925.000000,665984.000000
978.081394,-0.672766,148023.000000,696780.000000
981.870713,-0.670686,155197.000000,727058.000000
985.655632,-0.670577,162010.000000,758785.000000
989.436151,-0.666273,170019.000000,788443.000000
993.212270,-0.666905,176266.000000,818604.000000
998.240251,-0.663239,184964.000000,851778.000000
1002.006103,-0.662322,190519.000000,875508.000000
1005.767554,-0.659723,196102.000000,895787.000000
1009.524606,-0.658884,200098.000000,912278.000000
1013.277258,-0.657220,204164.000000,927254.000000
1017.025509,-0.657233,206631.000000,938488.000000
1020.769360,-0.655857,209246.000000,947358.000000
1025.754318,-0.653745,211932.000000,954863.000000
1029.487902,-0.652203,213316.000000,957693.000000
1033.217086,-0.652037,213821.000000,959594.000000
1036.941870,-0.651323,213615.000000,957095.000000
1040.662255,-0.650871,213930.000000,957508.000000
1044.378238,-0.648950,213905.000000,953172.000000
1048.089822,-0.649052,213173.000000,950133.000000
1053.031756,-0.648073,211884.000000,942260.000000
1056.733073,-0.646889,211098.000000,936210.000000
1060.429990,-0.647167,209880.000000,931404.000000
1064.122506,-0.645796,209078.000000,924921.000000
1067.810623,-0.645573,208224.000000,920669.000000
1071.494339,-0.646795,206922.000000,917491.000000
1076.399116,-0.645105,206676.000000,912840.000000
1080.072566,-0.644685,206200.000000,909859.000000
1083.741615,-0.645242,205636.000000,908534.000000
1087.406264,-0.644036,205874.000000,907064.000000
1091.066513,-0.643490,205797.000000,905584.000000
1094.722362,-0.644881,205514.000000,907241.000000
1098.373811,-0.645164,205628.000000,908336.000000
1103.235565,-0.642250,206788.000000,907352.000000
1106.876747,-0.643460,206389.000000,908126.000000
1110.513529,-0.643472,206615.000000,909147.000000
1114.145910,-0.643379,206738.000000,909493.000000
1117.773892,-0.644304,206547.000000,910589.000000
1121.397473,-0.643815,207088.000000,911947.000000
1125.016654,-0.645007,206464.000000,911698.000000
1129.835385,-0.642806,207418.000000,911281.000000
1133.444299,-0.642604,207695.000000,912073.000000
1137.048813,-0.640798,208493.000000,911778.000000
1140.648927,-0.640610,208223.000000,910204.000000
1144.244641,-0.640035,208337.000000,909498.000000
1147.835955,-0.639042,208774.000000,909324.000000
1152.617529,-0.639008,208238.000000,906918.000000
1156.198576,-0.637783,208484.000000,905431.000000
1159.775223,-0.636275,208962.000000,904362.000000
1163.347470,-0.634451,209317.000000,902101.000000
1166.915316,-0.632576,209935.000000,900868.000000
1170.478763,-0.630952,211435.000000,903918.000000
1174.037809,-0.627097,213105.000000,903006.000000
1178.776359,-0.624719,214394.000000,903507.000000
1182.325139,-0.617277,217962.000000,902937.000000
1185.869518,-0.613858,220075.000000,904541.000000
1189.409497,-0.609436,222694.000000,906035.000000
1192.945076,-0.607537,224594.000000,909777.000000
1196.476255,-0.606501,226828.000000,916638.000000
1200.003034,-0.603702,229675.000000,922179.000000
1204.698561,-0.602681,232729.000000,932248.000000
1208.215073,-0.601896,235830.000000,942963.000000
1211.727185,-0.601820,238631.000000,953996.000000
1215.234896,-0.599861,241974.000000,963008.000000
1218.738208,-0.599739,245450.000000,976566.000000
1222.237119,-0.598932,248996.000000,988836.000000
1226.895489,-0.598810,254001.000000,1008430.000000
1230.384134,-0.599365,257796.000000,1024805.000000
1233.868378,-0.600491,261030.000000,1040355.000000
1237.348222,-0.601597,264910.000000,1058512.000000
1240.823666,-0.601828,269187.000000,1076172.000000
1244.294710,-0.600819,274535.000000,1095006.000000
1247.761354,-0.602508,278817.000000,1116418.000000
1252.376701,-0.603706,285943.000000,1148114.000000
1255.833078,-0.603076,292339.000000,1172094.000000
1259.285055,-0.602860,298387.000000,1195749.000000
1262.732632,-0.604099,303484.000000,1219650.000000
1266.175808,-0.604135,308643.000000,1240484.000000
1269.614584,-0.604347,313923.000000,1262321.000000
1273.048961,-0.603980,319097.000000,1282044.000000
1277.621284,-0.605740,324380.000000,1308562.000000
1281.045394,-0.605051,329793.000000,1328288.000000
1284.465103,-0.606649,333450.000000,1347967.000000
1287.880412,-0.607421,337104.000000,1365163.000000
1291.291321,-0.607698,340768.000000,1380882.000000
1294.697830,-0.608093,344605.000000,1397703.000000
1299.232997,-0.608343,349244.000000,1417332.000000
1302.629239,-0.608055,352441.000000,1429359.000000
1306.021081,-0.608058,355144.000000,1440331.000000
1309.408522,-0.608040,357732.000000,1450769.000000
1312.791564,-0.607625,360160.000000,1459220.000000
1316.170205,-0.607476,362173.000000,1466873.000000
1319.544447,-0.606810,364403.000000,1473641.000000
1324.036591,-0.606884,366317.000000,1481635.000000
1327.400565,-0.607120,366589.000000,1483540.000000
1330.760139,-0.604870,368623.000000,1484063.000000
1334.115313,-0.605599,368498.000000,1486052.000000
1337.466087,-0.603097,370046.000000,1483721.000000
1340.812461,-0.601412,370709.000000,1480625.000000
1344.154435,-0.599738,371502.000000,1478083.000000
1348.603555,-0.596833,371615.000000,1468676.000000
1351.935262,-0.593882,370997.000000,1456306.000000
1355.262569,-0.590008,371791.000000,1446462.000000
1358.585475,-0.587341,370879.000000,1434081.000000
1361.903982,-0.583710,370539.000000,1420836.000000
1365.218088,-0.579050,371657.000000,1409912.000000
1369.630052,-0.574363,372397.000000,1397557.000000
1372.933891,-0.572363,372524.000000,1391609.000000
1376.233331,-0.570211,372314.000000,1383950.000000
1379.528370,-0.568236,371243.000000,1373707.000000
1382.819009,-0.567293,369231.000000,1363300.000000
1386.105248,-0.565537,367705.000000,1352186.000000
1389.387087,-0.562037,367073.000000,1339027.000000
1393.756027,-0.557341,365715.000000,1319725.000000
1397.027599,-0.552926,365152.000000,1304368.000000
1400.294771,-0.547038,365097.000000,1286607.000000
1403.557542,-0.541143,364333.000000,1266607.000000
1406.815914,-0.532252,365413.000000,1244619.000000
1410.069885,-0.523374,365734.000000,1220503.000000
1413.319456,-0.514218,364947.000000,1192471.000000
1417.645373,-0.500376,365539.000000,1156938.000000
1420.884678,-0.490098,365230.000000,1128924.000000
1424.119582,-0.480085,365533.000000,1104108.000000
1427.350086,-0.472858,364906.000000,1084025.000000
1430.576190,-0.464049,365583.000000,1064228.000000
1433.797894,-0.457030,365648.000000,1047353.000000
1437.015198,-0.451248,365698.000000,1033643.000000
1441.298091,-0.445687,364890.000000,1018238.000000
1444.505128,-0.441764,364741.000000,1008668.000000
1447.707765,-0.438482,364393.000000,1000120.000000
1450.906001,-0.436236,363044.000000,991278.000000
1454.099838,-0.432983,362635.000000,982771.000000
1457.289274,-0.431029,361653.000000,975711.000000
1461.535011,-0.426859,360303.000000,962780.000000
1464.714180,-0.425467,358064.000000,953734.000000
1467.888950,-0.422000,356949.000000,943205.000000
1471.059319,-0.419164,355912.000000,934343.000000
1474.225288,-0.417632,353737.000000,925363.000000
1477.386857,-0.415569,352477.000000,917699.000000
1480.544025,-0.415974,349693.000000,911300.000000
1484.746739,-0.414881,347943.000000,904459.000000
1487.893641,-0.416308,344781.000000,899189.000000
1491.036142,-0.417311,342531.000000,895387.000000
1494.174244,-0.418482,340170.000000,891616.000000
1497.307945,-0.419719,337701.000000,887670.000000
1500.437247,-0.422344,334446.000000,884443.000000
1503.562148,-0.424047,331876.000000,881096.000000
1507.721838,-0.428242,327918.000000,879037.000000
1510.836473,-0.430362,324967.000000,875390.000000
1513.946707,-0.433271,321718.000000,872461.000000
1517.052541,-0.433837,319073.000000,866418.000000
1520.153975,-0.436100,315575.000000,861396.000000
1523.251008,-0.439054,311252.000000,855393.000000
1527.373542,-0.440187,306492.000000,844513.000000
1530.460309,-0.440822,302471.000000,834652.000000
1533.542676,-0.441592,298873.000000,826187.000000
1536.620642,-0.442928,294593.000000,816866.000000
1539.694209,-0.442602,290524.000000,804978.000000
1542.763375,-0.443585,285805.000000,793697.000000
1545.828141,-0.444028,281854.000000,783523.000000
1549.907652,-0.445667,274841.000000,766918.000000
1552.962151,-0.446051,270515.000000,755514.000000
1556.012250,-0.448380,265203.000000,744660.000000
1559.057949,-0.449781,260042.000000,732528.000000
1562.099248,-0.449175,255973.000000,720061.000000
1565.136147,-0.450715,250523.000000,707233.000000
1568.168646,-0.450945,245616.000000,693748.000000
1572.205133,-0.453086,238774.000000,677756.000000
1575.227365,-0.454068,234179.000000,666217.000000
1578.245196,-0.454701,228934.000000,652246.000000
1581.258628,-0.457161,223478.000000,640318.000000
1584.267659,-0.458602,218239.000000,627385.000000
1587.272290,-0.460489,213357.000000,616021.000000
1591.271621,-0.462688,206678.000000,599766.000000
1594.265985,-0.466783,200655.000000,587804.000000
1597.255949,-0.469034,196105.000000,577461.000000
1600.241513,-0.471837,191413.000000,567294.000000
1603.222677,-0.475279,186271.000000,556447.000000
1606.199441,-0.478773,181567.000000,546776.000000
1609.171805,-0.481301,176656.000000,535093.000000
1613.128112,-0.485582,170106.000000,520357.000000
1616.090209,-0.489064,165195.000000,509402.000000
1619.047905,-0.491992,160661.000000,498773.000000
1622.001202,-0.498444,154762.000000,487650.000000
1624.950098,-0.504558,149284.000000,477058.000000
1627.894595,-0.508438,144304.000000,465282.000000
1630.834691,-0.514323,138573.000000,452899.000000
1634.747975,-0.522645,131373.000000,437674.000000
1637.677804,-0.528578,126061.000000,425754.000000
1640.603233,-0.537459,120043.000000,413805.000000
1643.524262,-0.545080,114222.000000,400710.000000
1646.440891,-0.551145,109595.000000,389884.000000
1649.353120,-0.560033,104146.000000,378160.000000
1653.229247,-0.547140,102337.000000,360722.000000
1656.131209,-0.541375,100118.000000,348247.000000
1659.028770,-0.547589,95076.000000,335475.000000
1661.921932,-0.537688,93881.000000,323792.000000
1664.810693,-0.534164,90392.000000,309239.000000
1667.695055,-0.533558,85969.000000,293697.000000
1670.575016,-0.530768,82225.000000,279108.000000
1674.408120,-0.508010,78925.000000,254229.000000
1677.277814,-inf,0.000000,234026.000000
1680.143108,-inf,0.000000,211626.000000
1683.004002,nan,-2147483648.000000,186999.000000
1685.860496,nan,-2147483648.000000,162177.000000
1688.712590,nan,-2147483648.000000,138053.000000
1691.560283,nan,-2147483648.000000,116764.000000
1695.350364,nan,-2147483648.000000,92838.000000
1698.187790,nan,-2147483648.000000,76785.000000
1701.020817,-inf,0.000000,63751.000000
