Method:,erol,,
Host Date-Time:,7/12/23 @ 14:20:25,,
Header Version:,1,,
System Temp (C):,40.3,,
Detector Temp (C):,26.27,,
Humidity (%):,16.36,,
Lamp PD:,3578,,
Shift Vector Coefficients:,-4.80707,0.053312,-0.000138677,,
Pixel to Wavelength Coefficients:,1763.6,-0.910608,-0.000244451,,
Serial Number:,6110061,,
Scan Config Name:,erol,,
Scan Config Type:,Slew,,
Section 1,,
Start wavelength (nm):,900,,
End wavelength (nm):,1700,,
Pattern Pixel Width (nm):,  11.71,,,,
Exposure (ms):,  0.635,,,,
Digital Resolution:,228,,
Num Repeats:,1,,
PGA Gain:,64,,
Total Measurement Time in sec:,  1.592,,
Wavelength (nm),Absorbance (AU),Reference Signal (unitless),Sample Signal (unitless)
901.370984,-0.778838,22318.000000,134120.000000
905.248306,-0.769353,26694.000000,156952.000000
909.121227,-0.756972,30240.000000,172804.000000
912.989749,-0.734387,35053.000000,190157.000000
918.140932,-0.729352,39668.000000,212712.000000
921.999187,-0.721011,44171.000000,232353.000000
925.853041,-0.713680,49463.000000,255835.000000
929.702495,-0.714657,55176.000000,286027.000000
933.547549,-0.708617,62603.000000,320046.000000
937.388203,-0.704464,70557.000000,357276.000000
941.224457,-0.696027,79215.000000,393400.000000
946.332618,-0.689986,90003.000000,440801.000000
950.158605,-0.688110,97001.000000,473027.000000
953.980191,-0.682802,104340.000000,502635.000000
957.797378,-0.677526,111157.000000,529009.000000
961.610165,-0.677472,117414.000000,558717.000000
965.418551,-0.674903,124361.000000,588284.000000
969.222537,-0.671489,131496.000000,617166.000000
974.287675,-0.669484,140925.000000,658373.000000
978.081394,-0.668075,148023.000000,689293.000000
981.870713,-0.666671,155197.000000,720368.000000
985.655632,-0.666187,162010.000000,751153.000000
989.436151,-0.661711,170019.000000,780205.000000
993.212270,-0.662661,176266.000000,810643.000000
998.240251,-0.659281,184964.000000,844051.000000
1002.006103,-0.658454,190519.000000,867745.000000
1005.767554,-0.655767,196102.000000,887665.000000
1009.524606,-0.655522,200098.000000,905243.000000
1013.277258,-0.653200,204164.000000,918711.000000
1017.025509,-0.653424,206631.000000,930293.000000
1020.769360,-0.652228,209246.000000,939475.000000
1025.754318,-0.649776,211932.000000,946177.000000
1029.487902,-0.648354,213316.000000,949243.000000
1033.217086,-0.648189,213821.000000,951128.000000
1036.941870,-0.648039,213615.000000,949884.000000
1040.662255,-0.646971,213930.000000,948948.000000
1044.378238,-0.645376,213905.000000,945360.000000
1048.089822,-0.644936,213173.000000,941171.000000
1053.031756,-0.645051,211884.000000,935728.000000
1056.733073,-0.643031,211098.000000,927930.000000
1060.429990,-0.643415,209880.000000,923392.000000
1064.122506,-0.642330,209078.000000,917569.000000
1067.810623,-0.642111,208224.000000,913359.000000
1071.494339,-0.642987,206922.000000,909481.000000
1076.399116,-0.641825,206676.000000,905973.000000
1080.072566,-0.641243,206200.000000,902675.000000
1083.741615,-0.641564,205636.000000,900872.000000
1087.406264,-0.640349,205874.000000,899395.000000
1091.066513,-0.639922,205797.000000,898176.000000
1094.722362,-0.641188,205514.000000,899558.000000
1098.373811,-0.640638,205628.000000,898918.000000
1103.235565,-0.638561,206788.000000,899676.000000
1106.876747,-0.639727,206389.000000,900354.000000
1110.513529,-0.639765,206615.000000,901419.000000
1114.145910,-0.639699,206738.000000,901819.000000
1117.773892,-0.640325,206547.000000,902286.000000
1121.397473,-0.639798,207088.000000,903552.000000
1125.016654,-0.641273,206464.000000,903894.000000
1129.835385,-0.639036,207418.000000,903404.000000
1133.444299,-0.639454,207695.000000,905482.000000
1137.048813,-0.637314,208493.000000,904494.000000
1140.648927,-0.637756,208223.000000,904242.000000
1144.244641,-0.637284,208337.000000,903755.000000
1147.835955,-0.635678,208774.000000,902308.000000
1152.617529,-0.636568,208238.000000,901837.000000
1156.198576,-0.635036,208484.000000,899723.000000
1159.775223,-0.633894,208962.000000,899417.000000
1163.347470,-0.632935,209317.000000,898958.000000
1166.915316,-0.632289,209935.000000,900272.000000
1170.478763,-0.629030,211435.000000,899927.000000
1174.037809,-0.625366,213105.000000,899414.000000
1178.776359,-0.624122,214394.000000,902266.000000
1182.325139,-0.617590,217962.000000,903588.000000
1185.869518,-0.614525,220075.000000,905933.000000
1189.409497,-0.611025,222694.000000,909356.000000
1192.945076,-0.609294,224594.000000,913466.000000
1196.476255,-0.607617,226828.000000,918997.000000
1200.003034,-0.605166,229675.000000,925293.000000
1204.698561,-0.603497,232729.000000,934001.000000
1208.215073,-0.602415,235830.000000,944091.000000
1211.727185,-0.602439,238631.000000,955357.000000
1215.234896,-0.601026,241974.000000,965595.000000
1218.738208,-0.599858,245450.000000,976835.000000
1222.237119,-0.599238,248996.000000,989533.000000
1226.895489,-0.598815,254001.000000,1008441.000000
1230.384134,-0.598616,257796.000000,1023039.000000
1233.868378,-0.600142,261030.000000,1039519.000000
1237.348222,-0.600390,264910.000000,1055573.000000
1240.823666,-0.601402,269187.000000,1075118.000000
1244.294710,-0.600821,274535.000000,1095012.000000
1247.761354,-0.601996,278817.000000,1115104.000000
1252.376701,-0.602430,285943.000000,1144746.000000
1255.833078,-0.601850,292339.000000,1168791.000000
1259.285055,-0.601375,298387.000000,1191668.000000
1262.732632,-0.603008,303484.000000,1216588.000000
1266.175808,-0.602989,308643.000000,1237217.000000
1269.614584,-0.602734,313923.000000,1257642.000000
1273.048961,-0.602778,319097.000000,1278501.000000
1277.621284,-0.604347,324380.000000,1304372.000000
1281.045394,-0.603632,329793.000000,1323957.000000
1284.465103,-0.604693,333450.000000,1341911.000000
1287.880412,-0.605818,337104.000000,1360135.000000
1291.291321,-0.606048,340768.000000,1375645.000000
1294.697830,-0.606374,344605.000000,1392182.000000
1299.232997,-0.606386,349244.000000,1410960.000000
1302.629239,-0.606174,352441.000000,1423183.000000
1306.021081,-0.606067,355144.000000,1433744.000000
1309.408522,-0.605595,357732.000000,1442622.000000
1312.791564,-0.605769,360160.000000,1452996.000000
1316.170205,-0.606149,362173.000000,1462395.000000
1319.544447,-0.605209,364403.000000,1468219.000000
1324.036591,-0.604875,366317.000000,1474797.000000
1327.400565,-0.605819,366589.000000,1479102.000000
1330.760139,-0.603720,368623.000000,1480138.000000
1334.115313,-0.604296,368498.000000,1481602.000000
1337.466087,-0.602331,370046.000000,1481109.000000
1340.812461,-0.600953,370709.000000,1479062.000000
1344.154435,-0.599344,371502.000000,1476744.000000
1348.603555,-0.597225,371615.000000,1470004.000000
1351.935262,-0.594952,370997.000000,1459899.000000
1355.262569,-0.590862,371791.000000,1449310.000000
1358.585475,-0.588602,370879.000000,1438250.000000
1361.903982,-0.585877,370539.000000,1427944.000000
1365.218088,-0.582097,371657.000000,1419840.000000
1369.630052,-0.577984,372397.000000,1409258.000000
1372.933891,-0.575887,372524.000000,1402946.000000
1376.233331,-0.574088,372314.000000,1396361.000000
1379.528370,-0.572609,371243.000000,1387610.000000
1382.819009,-0.571820,369231.000000,1377583.000000
1386.105248,-0.570229,367705.000000,1366873.000000
1389.387087,-0.567741,367073.000000,1356731.000000
1393.756027,-0.564053,365715.000000,1340282.000000
1397.027599,-0.560316,365152.000000,1326753.000000
1400.294771,-0.555346,365097.000000,1311459.000000
1403.557542,-0.550640,364333.000000,1294609.000000
1406.815914,-0.543378,365413.000000,1276915.000000
1410.069885,-0.535527,365734.000000,1255141.000000
1413.319456,-0.528774,364947.000000,1233115.000000
1417.645373,-0.517171,365539.000000,1202553.000000
1420.884678,-0.509299,365230.000000,1179955.000000
1424.119582,-0.500581,365533.000000,1157463.000000
1427.350086,-0.494821,364906.000000,1140256.000000
1430.576190,-0.487027,365583.000000,1122052.000000
1433.797894,-0.482131,365648.000000,1109672.000000
1437.015198,-0.477244,365698.000000,1097404.000000
1441.298091,-0.473213,364890.000000,1084863.000000
1444.505128,-0.469879,364741.000000,1076126.000000
1447.707765,-0.467200,364393.000000,1068489.000000
1450.906001,-0.465456,363044.000000,1060267.000000
1454.099838,-0.462895,362635.000000,1052846.000000
1457.289274,-0.460198,361653.000000,1043494.000000
1461.535011,-0.456751,360303.000000,1031381.000000
1464.714180,-0.455057,358064.000000,1020982.000000
1467.888950,-0.452784,356949.000000,1012489.000000
1471.059319,-0.448813,355912.000000,1000359.000000
1474.225288,-0.447333,353737.000000,990862.000000
1477.386857,-0.444595,352477.000000,981129.000000
1480.544025,-0.444913,349693.000000,974091.000000
1484.746739,-0.442237,347943.000000,963263.000000
1487.893641,-0.443242,344781.000000,956722.000000
1491.036142,-0.443178,342531.000000,950338.000000
1494.174244,-0.443735,340170.000000,944999.000000
1497.307945,-0.444673,337701.000000,940168.000000
1500.437247,-0.447087,334446.000000,936295.000000
1503.562148,-0.447880,331876.000000,930799.000000
1507.721838,-0.451382,327918.000000,927145.000000
1510.836473,-0.453121,324967.000000,922488.000000
1513.946707,-0.455550,321718.000000,918387.000000
1517.052541,-0.455619,319073.000000,910980.000000
1520.153975,-0.457290,315575.000000,904467.000000
1523.251008,-0.459414,311252.000000,896451.000000
1527.373542,-0.460361,306492.000000,884668.000000
1530.460309,-0.461244,302471.000000,874838.000000
1533.542676,-0.461153,298873.000000,864251.000000
1536.620642,-0.461284,294593.000000,852131.000000
1539.694209,-0.461560,290524.000000,840895.000000
1542.763375,-0.462559,285805.000000,829142.000000
1545.828141,-0.462402,281854.000000,817385.000000
1549.907652,-0.464445,274841.000000,800805.000000
1552.962151,-0.465936,270515.000000,790911.000000
1556.012250,-0.466632,265203.000000,776623.000000
1559.057949,-0.468827,260042.000000,765369.000000
1562.099248,-0.468552,255973.000000,752915.000000
1565.136147,-0.469889,250523.000000,739157.000000
1568.168646,-0.470263,245616.000000,725304.000000
1572.205133,-0.472539,238774.000000,708804.000000
1575.227365,-0.473331,234179.000000,696433.000000
1578.245196,-0.474222,228934.000000,682233.000000
1581.258628,-0.476087,223478.000000,668840.000000
1584.267659,-0.477513,218239.000000,655308.000000
1587.272290,-0.478718,213357.000000,642428.000000
1591.271621,-0.481134,206678.000000,625790.000000
1594.265985,-0.485733,200655.000000,614021.000000
1597.255949,-0.486941,196105.000000,601769.000000
1600.241513,-0.489002,191413.000000,590165.000000
1603.222677,-0.492958,186271.000000,579566.000000
1606.199441,-0.496663,181567.000000,569770.000000
1609.171805,-0.499912,176656.000000,558522.000000
1613.128112,-0.504448,170106.000000,543460.000000
1616.090209,-0.507187,165195.000000,531109.000000
1619.047905,-0.510150,160661.000000,520068.000000
1622.001202,-0.516249,154762.000000,508058.000000
1624.950098,-0.521073,149284.000000,495549.000000
1627.894595,-0.525359,144304.000000,483768.000000
1630.834691,-0.531883,138573.000000,471587.000000
1634.747975,-0.538820,131373.000000,454283.000000
1637.677804,-0.545007,126061.000000,442168.000000
1640.603233,-0.554295,120043.000000,430162.000000
1643.524262,-0.562412,114222.000000,417025.000000
1646.440891,-0.567160,109595.000000,404530.000000
1649.353120,-0.574761,104146.000000,391204.000000
1653.229247,-0.563382,102337.000000,374468.000000
1656.131209,-0.557248,100118.000000,361210.000000
1659.028770,-0.562112,95076.000000,346883.000000
1661.921932,-0.552896,93881.000000,335331.000000
1664.810693,-0.551140,90392.000000,321566.000000
1667.695055,-0.551151,85969.000000,305839.000000
1670.575016,-0.546217,82225.000000,289215.000000
1674.408120,-0.524156,78925.000000,263858.000000
1677.277814,-inf,0.000000,243635.000000
1680.143108,-inf,0.000000,221940.000000
1683.004002,nan,-2147483648.000000,195829.000000
1685.860496,nan,-2147483648.000000,169781.000000
1688.712590,nan,-2147483648.000000,145804.000000
1691.560283,nan,-2147483648.000000,124114.000000
1695.350364,nan,-2147483648.000000,97473.000000
1698.187790,nan,-2147483648.000000,81839.000000
1701.020817,-inf,0.000000,67271.000000
