Method:,erol,,
Host Date-Time:,7/12/23 @ 13:41:56,,
Header Version:,1,,
System Temp (C):,37.28,,
Detector Temp (C):,18.74,,
Humidity (%):,23.57,,
Lamp PD:,3577,,
Shift Vector Coefficients:,-4.80707,0.053312,-0.000138677,,
Pixel to Wavelength Coefficients:,1763.6,-0.910608,-0.000244451,,
Serial Number:,6110061,,
Scan Config Name:,erol,,
Scan Config Type:,Slew,,
Section 1,,
Start wavelength (nm):,900,,
End wavelength (nm):,1700,,
Pattern Pixel Width (nm):,  11.71,,,,
Exposure (ms):,  0.635,,,,
Digital Resolution:,228,,
Num Repeats:,1,,
PGA Gain:,64,,
Total Measurement Time in sec:,  1.593,,
Wavelength (nm),Absorbance (AU),Reference Signal (unitless),Sample Signal (unitless)
901.370984,-0.744430,22318.000000,123904.000000
905.248306,-0.730792,26694.000000,143617.000000
909.121227,-0.723237,30240.000000,159889.000000
912.989749,-0.698643,35053.000000,175133.000000
918.140932,-0.695044,39668.000000,196555.000000
921.999187,-0.687077,44171.000000,214889.000000
925.853041,-0.684938,49463.000000,239452.000000
929.702495,-0.685539,55176.000000,267479.000000
933.547549,-0.680727,62603.000000,300139.000000
937.388203,-0.678189,70557.000000,336302.000000
941.224457,-0.668986,79215.000000,369652.000000
946.332618,-0.660139,90003.000000,411525.000000
950.158605,-0.657323,97001.000000,440656.000000
953.980191,-0.650290,104340.000000,466381.000000
957.797378,-0.646542,111157.000000,492582.000000
961.610165,-0.645041,117414.000000,518515.000000
965.418551,-0.641625,124361.000000,544891.000000
969.222537,-0.639564,131496.000000,573425.000000
974.287675,-0.636622,140925.000000,610394.000000
978.081394,-0.635940,148023.000000,640132.000000
981.870713,-0.634281,155197.000000,668597.000000
985.655632,-0.633847,162010.000000,697250.000000
989.436151,-0.629460,170019.000000,724365.000000
993.212270,-0.629979,176266.000000,751878.000000
998.240251,-0.626405,184964.000000,782514.000000
1002.006103,-0.625187,190519.000000,803758.000000
1005.767554,-0.622802,196102.000000,822780.000000
1009.524606,-0.621865,200098.000000,837737.000000
1013.277258,-0.619627,204164.000000,850367.000000
1017.025509,-0.619317,206631.000000,860027.000000
1020.769360,-0.617246,209246.000000,866769.000000
1025.754318,-0.614590,211932.000000,872542.000000
1029.487902,-0.612638,213316.000000,874302.000000
1033.217086,-0.612070,213821.000000,875226.000000
1036.941870,-0.612525,213615.000000,875299.000000
1040.662255,-0.610660,213930.000000,872835.000000
1044.378238,-0.609921,213905.000000,871249.000000
1048.089822,-0.609222,213173.000000,866870.000000
1053.031756,-0.608049,211884.000000,859305.000000
1056.733073,-0.607650,211098.000000,855330.000000
1060.429990,-0.607166,209880.000000,849448.000000
1064.122506,-0.606732,209078.000000,845358.000000
1067.810623,-0.606534,208224.000000,841520.000000
1071.494339,-0.607123,206922.000000,837394.000000
1076.399116,-0.605832,206676.000000,833915.000000
1080.072566,-0.606157,206200.000000,832617.000000
1083.741615,-0.606181,205636.000000,830386.000000
1087.406264,-0.606057,205874.000000,831110.000000
1091.066513,-0.605388,205797.000000,829521.000000
1094.722362,-0.606673,205514.000000,830835.000000
1098.373811,-0.607298,205628.000000,832493.000000
1103.235565,-0.605372,206788.000000,833485.000000
1106.876747,-0.606741,206389.000000,834502.000000
1110.513529,-0.606019,206615.000000,834028.000000
1114.145910,-0.605940,206738.000000,834373.000000
1117.773892,-0.607314,206547.000000,836243.000000
1121.397473,-0.606197,207088.000000,836280.000000
1125.016654,-0.607552,206464.000000,836366.000000
1129.835385,-0.605901,207418.000000,837042.000000
1133.444299,-0.605893,207695.000000,838144.000000
1137.048813,-0.603633,208493.000000,836998.000000
1140.648927,-0.603171,208223.000000,835026.000000
1144.244641,-0.602635,208337.000000,834452.000000
1147.835955,-0.600557,208774.000000,832211.000000
1152.617529,-0.600399,208238.000000,829773.000000
1156.198576,-0.598567,208484.000000,827256.000000
1159.775223,-0.597325,208962.000000,826785.000000
1163.347470,-0.594763,209317.000000,823318.000000
1166.915316,-0.593041,209935.000000,822481.000000
1170.478763,-0.589669,211435.000000,821950.000000
1174.037809,-0.585902,213105.000000,821289.000000
1178.776359,-0.581942,214394.000000,818757.000000
1182.325139,-0.574124,217962.000000,817532.000000
1185.869518,-0.569521,220075.000000,816754.000000
1189.409497,-0.564539,222694.000000,817048.000000
1192.945076,-0.561375,224594.000000,818038.000000
1196.476255,-0.559549,226828.000000,822707.000000
1200.003034,-0.555926,229675.000000,826114.000000
1204.698561,-0.554917,232729.000000,835156.000000
1208.215073,-0.554122,235830.000000,844737.000000
1211.727185,-0.554488,238631.000000,855489.000000
1215.234896,-0.554407,241974.000000,867312.000000
1218.738208,-0.555346,245450.000000,881676.000000
1222.237119,-0.555712,248996.000000,895167.000000
1226.895489,-0.556712,254001.000000,915266.000000
1230.384134,-0.558317,257796.000000,932381.000000
1233.868378,-0.560794,261030.000000,949478.000000
1237.348222,-0.562455,264910.000000,967283.000000
1240.823666,-0.563014,269187.000000,984166.000000
1244.294710,-0.562935,274535.000000,1003536.000000
1247.761354,-0.565057,278817.000000,1024181.000000
1252.376701,-0.566204,285943.000000,1053134.000000
1255.833078,-0.565941,292339.000000,1076038.000000
1259.285055,-0.565352,298387.000000,1096811.000000
1262.732632,-0.566088,303484.000000,1117439.000000
1266.175808,-0.566130,308643.000000,1136544.000000
1269.614584,-0.565713,313923.000000,1154878.000000
1273.048961,-0.565415,319097.000000,1173107.000000
1277.621284,-0.566704,324380.000000,1196074.000000
1281.045394,-0.566476,329793.000000,1215394.000000
1284.465103,-0.567514,333450.000000,1231812.000000
1287.880412,-0.568739,337104.000000,1248828.000000
1291.291321,-0.569680,340768.000000,1265142.000000
1294.697830,-0.570018,344605.000000,1280382.000000
1299.232997,-0.570261,349244.000000,1298345.000000
1302.629239,-0.569927,352441.000000,1309222.000000
1306.021081,-0.570272,355144.000000,1320312.000000
1309.408522,-0.569745,357732.000000,1328320.000000
1312.791564,-0.569997,360160.000000,1338113.000000
1316.170205,-0.570488,362173.000000,1347112.000000
1319.544447,-0.569627,364403.000000,1352724.000000
1324.036591,-0.569744,366317.000000,1360195.000000
1327.400565,-0.570087,366589.000000,1362281.000000
1330.760139,-0.568776,368623.000000,1365711.000000
1334.115313,-0.569674,368498.000000,1368072.000000
1337.466087,-0.567171,370046.000000,1365926.000000
1340.812461,-0.566658,370709.000000,1366757.000000
1344.154435,-0.564439,371502.000000,1362700.000000
1348.603555,-0.561933,371615.000000,1355271.000000
1351.935262,-0.559953,370997.000000,1346862.000000
1355.262569,-0.555627,371791.000000,1336368.000000
1358.585475,-0.552941,370879.000000,1324869.000000
1361.903982,-0.549201,370539.000000,1312305.000000
1365.218088,-0.543990,371657.000000,1300565.000000
1369.630052,-0.538711,372397.000000,1287411.000000
1372.933891,-0.534777,372524.000000,1276237.000000
1376.233331,-0.532536,372314.000000,1268953.000000
1379.528370,-0.529609,371243.000000,1256803.000000
1382.819009,-0.529004,369231.000000,1248252.000000
1386.105248,-0.527217,367705.000000,1237987.000000
1389.387087,-0.525088,367073.000000,1229816.000000
1393.756027,-0.523057,365715.000000,1219551.000000
1397.027599,-0.520324,365152.000000,1210034.000000
1400.294771,-0.516787,365097.000000,1200039.000000
1403.557542,-0.513164,364333.000000,1187580.000000
1406.815914,-0.507369,365413.000000,1175311.000000
1410.069885,-0.500725,365734.000000,1158485.000000
1413.319456,-0.495470,364947.000000,1142089.000000
1417.645373,-0.485717,365539.000000,1118538.000000
1420.884678,-0.479265,365230.000000,1101111.000000
1424.119582,-0.472284,365533.000000,1084453.000000
1427.350086,-0.467090,364906.000000,1069722.000000
1430.576190,-0.461615,365583.000000,1058282.000000
1433.797894,-0.456971,365648.000000,1047210.000000
1437.015198,-0.452289,365698.000000,1036124.000000
1441.298091,-0.449035,364890.000000,1026118.000000
1444.505128,-0.446460,364741.000000,1019635.000000
1447.707765,-0.443825,364393.000000,1012500.000000
1450.906001,-0.442019,363044.000000,1004566.000000
1454.099838,-0.439394,362635.000000,997386.000000
1457.289274,-0.437194,361653.000000,989659.000000
1461.535011,-0.432380,360303.000000,975098.000000
1464.714180,-0.430783,358064.000000,965481.000000
1467.888950,-0.426166,356949.000000,952297.000000
1471.059319,-0.422187,355912.000000,940870.000000
1474.225288,-0.419708,353737.000000,929797.000000
1477.386857,-0.415381,352477.000000,917301.000000
1480.544025,-0.413831,349693.000000,906814.000000
1484.746739,-0.409534,347943.000000,893393.000000
1487.893641,-0.409547,344781.000000,885299.000000
1491.036142,-0.408978,342531.000000,878370.000000
1494.174244,-0.409115,340170.000000,872592.000000
1497.307945,-0.408532,337701.000000,865096.000000
1500.437247,-0.409789,334446.000000,859242.000000
1503.562148,-0.410069,331876.000000,853189.000000
1507.721838,-0.410682,327918.000000,844203.000000
1510.836473,-0.412018,324967.000000,839184.000000
1513.946707,-0.413035,321718.000000,832741.000000
1517.052541,-0.412185,319073.000000,824281.000000
1520.153975,-0.413214,315575.000000,817178.000000
1523.251008,-0.413741,311252.000000,806962.000000
1527.373542,-0.413685,306492.000000,794518.000000
1530.460309,-0.412660,302471.000000,782246.000000
1533.542676,-0.411783,298873.000000,771382.000000
1536.620642,-0.411491,294593.000000,759824.000000
1539.694209,-0.412379,290524.000000,750863.000000
1542.763375,-0.414204,285805.000000,741778.000000
1545.828141,-0.414763,281854.000000,732466.000000
1549.907652,-0.419452,274841.000000,721994.000000
1552.962151,-0.420186,270515.000000,711831.000000
1556.012250,-0.423820,265203.000000,703718.000000
1559.057949,-0.425932,260042.000000,693387.000000
1562.099248,-0.425118,255973.000000,681259.000000
1565.136147,-0.426195,250523.000000,668409.000000
1568.168646,-0.426127,245616.000000,655214.000000
1572.205133,-0.427545,238774.000000,639046.000000
1575.227365,-0.427696,234179.000000,626966.000000
1578.245196,-0.430098,228934.000000,616323.000000
1581.258628,-0.431204,223478.000000,603168.000000
1584.267659,-0.431861,218239.000000,589921.000000
1587.272290,-0.433422,213357.000000,578800.000000
1591.271621,-0.436498,206678.000000,564667.000000
1594.265985,-0.440401,200655.000000,553160.000000
1597.255949,-0.442364,196105.000000,543066.000000
1600.241513,-0.444523,191413.000000,532714.000000
1603.222677,-0.447898,186271.000000,522448.000000
1606.199441,-0.451846,181567.000000,513905.000000
1609.171805,-0.455966,176656.000000,504771.000000
1613.128112,-0.460379,170106.000000,491019.000000
1616.090209,-0.465018,165195.000000,481964.000000
1619.047905,-0.469188,160661.000000,473259.000000
1622.001202,-0.477519,154762.000000,464711.000000
1624.950098,-0.483146,149284.000000,454108.000000
1627.894595,-0.486662,144304.000000,442528.000000
1630.834691,-0.494780,138573.000000,432971.000000
1634.747975,-0.500579,131373.000000,415992.000000
1637.677804,-0.507983,126061.000000,406035.000000
1640.603233,-0.515955,120043.000000,393815.000000
1643.524262,-0.525298,114222.000000,382867.000000
1646.440891,-0.529556,109595.000000,370977.000000
1649.353120,-0.538746,104146.000000,360071.000000
1653.229247,-0.523737,102337.000000,341798.000000
1656.131209,-0.519573,100118.000000,331196.000000
1659.028770,-0.524874,95076.000000,318379.000000
1661.921932,-0.509970,93881.000000,303772.000000
1664.810693,-0.505546,90392.000000,289518.000000
1667.695055,-0.503015,85969.000000,273752.000000
1670.575016,-0.493177,82225.000000,255965.000000
1674.408120,-0.459975,78925.000000,227609.000000
1677.277814,-inf,0.000000,203722.000000
1680.143108,-inf,0.000000,177269.000000
1683.004002,nan,-2147483648.000000,152856.000000
1685.860496,nan,-2147483648.000000,129143.000000
1688.712590,nan,-2147483648.000000,107283.000000
1691.560283,nan,-2147483648.000000,88290.000000
1695.350364,nan,-2147483648.000000,68886.000000
1698.187790,nan,-2147483648.000000,56772.000000
1701.020817,-inf,0.000000,47448.000000
