Method:,erol,,
Host Date-Time:,7/12/23 @ 14:5:48,,
Header Version:,1,,
System Temp (C):,40.37,,
Detector Temp (C):,27.23,,
Humidity (%):,17.35,,
Lamp PD:,3485,,
Shift Vector Coefficients:,-4.80707,0.053312,-0.000138677,,
Pixel to Wavelength Coefficients:,1763.6,-0.910608,-0.000244451,,
Serial Number:,6110061,,
Scan Config Name:,erol,,
Scan Config Type:,Slew,,
Section 1,,
Start wavelength (nm):,900,,
End wavelength (nm):,1700,,
Pattern Pixel Width (nm):,  11.71,,,,
Exposure (ms):,  0.635,,,,
Digital Resolution:,228,,
Num Repeats:,1,,
PGA Gain:,64,,
Total Measurement Time in sec:,  1.593,,
Wavelength (nm),Absorbance (AU),Reference Signal (unitless),Sample Signal (unitless)
901.370984,-0.735320,22318.000000,121332.000000
905.248306,-0.722093,26694.000000,140769.000000
909.121227,-0.717767,30240.000000,157888.000000
912.989749,-0.687671,35053.000000,170764.000000
918.140932,-0.679927,39668.000000,189831.000000
921.999187,-0.675356,44171.000000,209167.000000
925.853041,-0.669809,49463.000000,231254.000000
929.702495,-0.665947,55176.000000,255680.000000
933.547549,-0.661935,62603.000000,287429.000000
937.388203,-0.657013,70557.000000,320297.000000
941.224457,-0.649506,79215.000000,353438.000000
946.332618,-0.642953,90003.000000,395558.000000
950.158605,-0.640565,97001.000000,423976.000000
953.980191,-0.634251,104340.000000,449471.000000
957.797378,-0.632024,111157.000000,476388.000000
961.610165,-0.630069,117414.000000,500944.000000
965.418551,-0.626984,124361.000000,526827.000000
969.222537,-0.623671,131496.000000,552820.000000
974.287675,-0.620682,140925.000000,588396.000000
978.081394,-0.619096,148023.000000,615779.000000
981.870713,-0.617850,155197.000000,643774.000000
985.655632,-0.616242,162010.000000,669551.000000
989.436151,-0.613507,170019.000000,698239.000000
993.212270,-0.613151,176266.000000,723301.000000
998.240251,-0.610066,184964.000000,753622.000000
1002.006103,-0.609604,190519.000000,775430.000000
1005.767554,-0.606450,196102.000000,792378.000000
1009.524606,-0.605937,200098.000000,807569.000000
1013.277258,-0.603540,204164.000000,819443.000000
1017.025509,-0.604073,206631.000000,830363.000000
1020.769360,-0.602322,209246.000000,837490.000000
1025.754318,-0.599656,211932.000000,843049.000000
1029.487902,-0.598939,213316.000000,847154.000000
1033.217086,-0.598213,213821.000000,847742.000000
1036.941870,-0.598204,213615.000000,846907.000000
1040.662255,-0.597128,213930.000000,846058.000000
1044.378238,-0.596695,213905.000000,845116.000000
1048.089822,-0.595629,213173.000000,840158.000000
1053.031756,-0.594919,211884.000000,833714.000000
1056.733073,-0.593957,211098.000000,828784.000000
1060.429990,-0.593775,209880.000000,823657.000000
1064.122506,-0.593262,209078.000000,819540.000000
1067.810623,-0.592325,208224.000000,814433.000000
1071.494339,-0.593741,206922.000000,811985.000000
1076.399116,-0.592424,206676.000000,808564.000000
1080.072566,-0.591918,206200.000000,805762.000000
1083.741615,-0.592632,205636.000000,804880.000000
1087.406264,-0.591335,205874.000000,803408.000000
1091.066513,-0.590773,205797.000000,802070.000000
1094.722362,-0.591995,205514.000000,803224.000000
1098.373811,-0.592301,205628.000000,804235.000000
1103.235565,-0.590185,206788.000000,804841.000000
1106.876747,-0.590933,206389.000000,804673.000000
1110.513529,-0.591003,206615.000000,805685.000000
1114.145910,-0.591194,206738.000000,806518.000000
1117.773892,-0.591692,206547.000000,806698.000000
1121.397473,-0.590267,207088.000000,806161.000000
1125.016654,-0.592008,206464.000000,806961.000000
1129.835385,-0.589848,207418.000000,806667.000000
1133.444299,-0.590044,207695.000000,808109.000000
1137.048813,-0.588169,208493.000000,807720.000000
1140.648927,-0.588370,208223.000000,807046.000000
1144.244641,-0.587598,208337.000000,806054.000000
1147.835955,-0.586312,208774.000000,805357.000000
1152.617529,-0.585970,208238.000000,802657.000000
1156.198576,-0.585573,208484.000000,802871.000000
1159.775223,-0.582452,208962.000000,798950.000000
1163.347470,-0.581097,209317.000000,797813.000000
1166.915316,-0.579628,209935.000000,797467.000000
1170.478763,-0.576318,211435.000000,797068.000000
1174.037809,-0.573010,213105.000000,797267.000000
1178.776359,-0.570765,214394.000000,797953.000000
1182.325139,-0.562923,217962.000000,796716.000000
1185.869518,-0.558143,220075.000000,795634.000000
1189.409497,-0.555039,222694.000000,799370.000000
1192.945076,-0.552269,224594.000000,801064.000000
1196.476255,-0.550157,226828.000000,805107.000000
1200.003034,-0.548092,229675.000000,811346.000000
1204.698561,-0.546040,232729.000000,818259.000000
1208.215073,-0.544544,235830.000000,826311.000000
1211.727185,-0.543474,238631.000000,834066.000000
1215.234896,-0.542270,241974.000000,843409.000000
1218.738208,-0.540804,245450.000000,852642.000000
1222.237119,-0.540225,248996.000000,863809.000000
1226.895489,-0.540678,254001.000000,882091.000000
1230.384134,-0.540742,257796.000000,895403.000000
1233.868378,-0.541610,261030.000000,908448.000000
1237.348222,-0.543184,264910.000000,925299.000000
1240.823666,-0.543461,269187.000000,940838.000000
1244.294710,-0.543817,274535.000000,960318.000000
1247.761354,-0.544530,278817.000000,976898.000000
1252.376701,-0.545581,285943.000000,1004294.000000
1255.833078,-0.544763,292339.000000,1024826.000000
1259.285055,-0.544734,298387.000000,1045956.000000
1262.732632,-0.546137,303484.000000,1067266.000000
1266.175808,-0.545945,308643.000000,1084929.000000
1269.614584,-0.546165,313923.000000,1104048.000000
1273.048961,-0.546517,319097.000000,1123154.000000
1277.621284,-0.548101,324380.000000,1145922.000000
1281.045394,-0.547273,329793.000000,1162824.000000
1284.465103,-0.549059,333450.000000,1180564.000000
1287.880412,-0.550360,337104.000000,1197083.000000
1291.291321,-0.550557,340768.000000,1210642.000000
1294.697830,-0.551250,344605.000000,1226230.000000
1299.232997,-0.551847,349244.000000,1244445.000000
1302.629239,-0.551821,352441.000000,1255763.000000
1306.021081,-0.551696,355144.000000,1265028.000000
1309.408522,-0.551374,357732.000000,1273304.000000
1312.791564,-0.551373,360160.000000,1281942.000000
1316.170205,-0.551261,362173.000000,1288776.000000
1319.544447,-0.550734,364403.000000,1295137.000000
1324.036591,-0.550384,366317.000000,1300891.000000
1327.400565,-0.551073,366589.000000,1303924.000000
1330.760139,-0.548607,368623.000000,1303735.000000
1334.115313,-0.548802,368498.000000,1303878.000000
1337.466087,-0.546628,370046.000000,1302819.000000
1340.812461,-0.544923,370709.000000,1300039.000000
1344.154435,-0.542091,371502.000000,1294352.000000
1348.603555,-0.538135,371615.000000,1283006.000000
1351.935262,-0.535407,370997.000000,1272850.000000
1355.262569,-0.530308,371791.000000,1260686.000000
1358.585475,-0.527263,370879.000000,1248806.000000
1361.903982,-0.522954,370539.000000,1235344.000000
1365.218088,-0.517822,371657.000000,1224515.000000
1369.630052,-0.513223,372397.000000,1214030.000000
1372.933891,-0.510382,372524.000000,1206526.000000
1376.233331,-0.508573,372314.000000,1200832.000000
1379.528370,-0.506336,371243.000000,1191227.000000
1382.819009,-0.505352,369231.000000,1182088.000000
1386.105248,-0.503878,367705.000000,1173214.000000
1389.387087,-0.500804,367073.000000,1162938.000000
1393.756027,-0.496193,365715.000000,1146399.000000
1397.027599,-0.491309,365152.000000,1131833.000000
1400.294771,-0.485853,365097.000000,1117535.000000
1403.557542,-0.479576,364333.000000,1099195.000000
1406.815914,-0.470869,365413.000000,1080569.000000
1410.069885,-0.461668,365734.000000,1058847.000000
1413.319456,-0.452805,364947.000000,1035224.000000
1417.645373,-0.437867,365539.000000,1001846.000000
1420.884678,-0.427916,365230.000000,978323.000000
1424.119582,-0.417726,365533.000000,956428.000000
1427.350086,-0.410086,364906.000000,938138.000000
1430.576190,-0.401449,365583.000000,921372.000000
1433.797894,-0.395159,365648.000000,908286.000000
1437.015198,-0.388856,365698.000000,895321.000000
1441.298091,-0.383390,364890.000000,882169.000000
1444.505128,-0.379883,364741.000000,874717.000000
1447.707765,-0.375683,364393.000000,865472.000000
1450.906001,-0.373762,363044.000000,858462.000000
1454.099838,-0.369701,362635.000000,849515.000000
1457.289274,-0.366914,361653.000000,841795.000000
1461.535011,-0.361902,360303.000000,829029.000000
1464.714180,-0.359808,358064.000000,819914.000000
1467.888950,-0.356499,356949.000000,811157.000000
1471.059319,-0.352765,355912.000000,801876.000000
1474.225288,-0.350541,353737.000000,792906.000000
1477.386857,-0.346622,352477.000000,782983.000000
1480.544025,-0.346584,349693.000000,776732.000000
1484.746739,-0.342896,347943.000000,766310.000000
1487.893641,-0.344275,344781.000000,761761.000000
1491.036142,-0.344552,342531.000000,757272.000000
1494.174244,-0.344634,340170.000000,752194.000000
1497.307945,-0.345187,337701.000000,747686.000000
1500.437247,-0.347152,334446.000000,743838.000000
1503.562148,-0.349187,331876.000000,741589.000000
1507.721838,-0.351812,327918.000000,737187.000000
1510.836473,-0.353025,324967.000000,732596.000000
1513.946707,-0.355350,321718.000000,729164.000000
1517.052541,-0.355832,319073.000000,723973.000000
1520.153975,-0.358060,315575.000000,719718.000000
1523.251008,-0.359732,311252.000000,712597.000000
1527.373542,-0.360203,306492.000000,702461.000000
1530.460309,-0.361627,302471.000000,695522.000000
1533.542676,-0.361593,298873.000000,687194.000000
1536.620642,-0.360999,294593.000000,676427.000000
1539.694209,-0.361552,290524.000000,667935.000000
1542.763375,-0.363109,285805.000000,659446.000000
1545.828141,-0.363413,281854.000000,650785.000000
1549.907652,-0.365405,274841.000000,637510.000000
1552.962151,-0.365930,270515.000000,628234.000000
1556.012250,-0.368274,265203.000000,619231.000000
1559.057949,-0.369152,260042.000000,608409.000000
1562.099248,-0.369349,255973.000000,599161.000000
1565.136147,-0.371292,250523.000000,589033.000000
1568.168646,-0.372950,245616.000000,579704.000000
1572.205133,-0.373516,238774.000000,564291.000000
1575.227365,-0.374303,234179.000000,554436.000000
1578.245196,-0.375802,228934.000000,543891.000000
1581.258628,-0.377130,223478.000000,532555.000000
1584.267659,-0.379390,218239.000000,522784.000000
1587.272290,-0.379941,213357.000000,511738.000000
1591.271621,-0.384143,206678.000000,500538.000000
1594.265985,-0.388595,200655.000000,490959.000000
1597.255949,-0.390722,196105.000000,482182.000000
1600.241513,-0.394122,191413.000000,474344.000000
1603.222677,-0.398521,186271.000000,466301.000000
1606.199441,-0.401849,181567.000000,458022.000000
1609.171805,-0.407936,176656.000000,451923.000000
1613.128112,-0.410963,170106.000000,438210.000000
1616.090209,-0.415755,165195.000000,430281.000000
1619.047905,-0.418973,160661.000000,421583.000000
1622.001202,-0.426436,154762.000000,413143.000000
1624.950098,-0.432057,149284.000000,403711.000000
1627.894595,-0.436208,144304.000000,393991.000000
1630.834691,-0.442442,138573.000000,383814.000000
1634.747975,-0.452830,131373.000000,372680.000000
1637.677804,-0.458004,126061.000000,361897.000000
1640.603233,-0.467071,120043.000000,351891.000000
1643.524262,-0.475713,114222.000000,341557.000000
1646.440891,-0.481677,109595.000000,332252.000000
1649.353120,-0.490731,104146.000000,322384.000000
1653.229247,-0.478402,102337.000000,307918.000000
1656.131209,-0.471197,100118.000000,296285.000000
1659.028770,-0.479868,95076.000000,287038.000000
1661.921932,-0.469135,93881.000000,276511.000000
1664.810693,-0.466560,90392.000000,264661.000000
1667.695055,-0.465655,85969.000000,251187.000000
1670.575016,-0.463067,82225.000000,238820.000000
1674.408120,-0.438979,78925.000000,216867.000000
1677.277814,-inf,0.000000,199287.000000
1680.143108,-inf,0.000000,179958.000000
1683.004002,nan,-2147483648.000000,159890.000000
1685.860496,nan,-2147483648.000000,138768.000000
1688.712590,nan,-2147483648.000000,118648.000000
1691.560283,nan,-2147483648.000000,98946.000000
1695.350364,nan,-2147483648.000000,78633.000000
1698.187790,nan,-2147483648.000000,66370.000000
1701.020817,-inf,0.000000,54110.000000
