Method:,erol,,
Host Date-Time:,7/12/23 @ 14:5:18,,
Header Version:,1,,
System Temp (C):,40.28,,
Detector Temp (C):,26.23,,
Humidity (%):,17.4,,
Lamp PD:,3456,,
Shift Vector Coefficients:,-4.80707,0.053312,-0.000138677,,
Pixel to Wavelength Coefficients:,1763.6,-0.910608,-0.000244451,,
Serial Number:,6110061,,
Scan Config Name:,erol,,
Scan Config Type:,Slew,,
Section 1,,
Start wavelength (nm):,900,,
End wavelength (nm):,1700,,
Pattern Pixel Width (nm):,  11.71,,,,
Exposure (ms):,  0.635,,,,
Digital Resolution:,228,,
Num Repeats:,1,,
PGA Gain:,64,,
Total Measurement Time in sec:,  1.593,,
Wavelength (nm),Absorbance (AU),Reference Signal (unitless),Sample Signal (unitless)
901.370984,-0.754611,22318.000000,126843.000000
905.248306,-0.743948,26694.000000,148034.000000
909.121227,-0.736420,30240.000000,164817.000000
912.989749,-0.712668,35053.000000,180881.000000
918.140932,-0.704639,39668.000000,200946.000000
921.999187,-0.696404,44171.000000,219554.000000
925.853041,-0.691756,49463.000000,243241.000000
929.702495,-0.691700,55176.000000,271300.000000
933.547549,-0.683961,62603.000000,302382.000000
937.388203,-0.681317,70557.000000,338733.000000
941.224457,-0.674004,79215.000000,373948.000000
946.332618,-0.667401,90003.000000,418464.000000
950.158605,-0.665203,97001.000000,448724.000000
953.980191,-0.660036,104340.000000,476965.000000
957.797378,-0.656014,111157.000000,503444.000000
961.610165,-0.654667,117414.000000,530136.000000
965.418551,-0.650928,124361.000000,556689.000000
969.222537,-0.648818,131496.000000,585775.000000
974.287675,-0.644524,140925.000000,621601.000000
978.081394,-0.643361,148023.000000,651163.000000
981.870713,-0.641603,155197.000000,679964.000000
985.655632,-0.640788,162010.000000,708483.000000
989.436151,-0.637292,170019.000000,737546.000000
993.212270,-0.636569,176266.000000,763375.000000
998.240251,-0.633704,184964.000000,795776.000000
1002.006103,-0.632598,190519.000000,817591.000000
1005.767554,-0.629784,196102.000000,836115.000000
1009.524606,-0.629179,200098.000000,851965.000000
1013.277258,-0.627271,204164.000000,865467.000000
1017.025509,-0.626418,206631.000000,874206.000000
1020.769360,-0.625096,209246.000000,882579.000000
1025.754318,-0.622796,211932.000000,889185.000000
1029.487902,-0.621577,213316.000000,892484.000000
1033.217086,-0.621206,213821.000000,893833.000000
1036.941870,-0.621880,213615.000000,894359.000000
1040.662255,-0.620301,213930.000000,892428.000000
1044.378238,-0.618842,213905.000000,889331.000000
1048.089822,-0.618955,213173.000000,886517.000000
1053.031756,-0.617490,211884.000000,878190.000000
1056.733073,-0.616602,211098.000000,873144.000000
1060.429990,-0.616310,209880.000000,867524.000000
1064.122506,-0.615346,209078.000000,862291.000000
1067.810623,-0.614948,208224.000000,857983.000000
1071.494339,-0.616041,206922.000000,854766.000000
1076.399116,-0.614100,206676.000000,849943.000000
1080.072566,-0.614139,206200.000000,848062.000000
1083.741615,-0.615208,205636.000000,847826.000000
1087.406264,-0.613605,205874.000000,845681.000000
1091.066513,-0.613192,205797.000000,844562.000000
1094.722362,-0.614582,205514.000000,846103.000000
1098.373811,-0.614094,205628.000000,845621.000000
1103.235565,-0.613212,206788.000000,848667.000000
1106.876747,-0.613895,206389.000000,848363.000000
1110.513529,-0.613240,206615.000000,848011.000000
1114.145910,-0.613806,206738.000000,849624.000000
1117.773892,-0.614801,206547.000000,850786.000000
1121.397473,-0.614370,207088.000000,852167.000000
1125.016654,-0.615881,206464.000000,852561.000000
1129.835385,-0.613844,207418.000000,852493.000000
1133.444299,-0.613187,207695.000000,852340.000000
1137.048813,-0.611317,208493.000000,851938.000000
1140.648927,-0.611311,208223.000000,850824.000000
1144.244641,-0.610495,208337.000000,849692.000000
1147.835955,-0.609244,208774.000000,849024.000000
1152.617529,-0.608297,208238.000000,845000.000000
1156.198576,-0.607352,208484.000000,844159.000000
1159.775223,-0.605153,208962.000000,841822.000000
1163.347470,-0.603490,209317.000000,840030.000000
1166.915316,-0.601959,209935.000000,839544.000000
1170.478763,-0.599466,211435.000000,840703.000000
1174.037809,-0.595406,213105.000000,839459.000000
1178.776359,-0.592886,214394.000000,839651.000000
1182.325139,-0.585160,217962.000000,838573.000000
1185.869518,-0.581697,220075.000000,839977.000000
1189.409497,-0.578302,222694.000000,843355.000000
1192.945076,-0.575169,224594.000000,844437.000000
1196.476255,-0.573306,226828.000000,849185.000000
1200.003034,-0.570785,229675.000000,854867.000000
1204.698561,-0.569051,232729.000000,862782.000000
1208.215073,-0.568308,235830.000000,872785.000000
1211.727185,-0.566326,238631.000000,879129.000000
1215.234896,-0.565621,241974.000000,890000.000000
1218.738208,-0.564215,245450.000000,899867.000000
1222.237119,-0.564021,248996.000000,912458.000000
1226.895489,-0.563689,254001.000000,930088.000000
1230.384134,-0.563897,257796.000000,944438.000000
1233.868378,-0.564581,261030.000000,957793.000000
1237.348222,-0.566054,264910.000000,975332.000000
1240.823666,-0.566821,269187.000000,992831.000000
1244.294710,-0.566299,274535.000000,1011338.000000
1247.761354,-0.567649,278817.000000,1030310.000000
1252.376701,-0.568146,285943.000000,1057853.000000
1255.833078,-0.567149,292339.000000,1079035.000000
1259.285055,-0.567003,298387.000000,1100990.000000
1262.732632,-0.567902,303484.000000,1122116.000000
1266.175808,-0.568662,308643.000000,1143191.000000
1269.614584,-0.568253,313923.000000,1161653.000000
1273.048961,-0.568056,319097.000000,1180264.000000
1277.621284,-0.569758,324380.000000,1204514.000000
1281.045394,-0.569143,329793.000000,1222883.000000
1284.465103,-0.570347,333450.000000,1239875.000000
1287.880412,-0.571659,337104.000000,1257255.000000
1291.291321,-0.572686,340768.000000,1273928.000000
1294.697830,-0.572459,344605.000000,1287599.000000
1299.232997,-0.573340,349244.000000,1307582.000000
1302.629239,-0.572786,352441.000000,1317871.000000
1306.021081,-0.572865,355144.000000,1328217.000000
1309.408522,-0.572341,357732.000000,1336283.000000
1312.791564,-0.572004,360160.000000,1344309.000000
1316.170205,-0.572414,362173.000000,1353102.000000
1319.544447,-0.571558,364403.000000,1358752.000000
1324.036591,-0.571653,366317.000000,1366188.000000
1327.400565,-0.571843,366589.000000,1367801.000000
1330.760139,-0.569388,368623.000000,1367636.000000
1334.115313,-0.569739,368498.000000,1368278.000000
1337.466087,-0.567059,370046.000000,1365573.000000
1340.812461,-0.565675,370709.000000,1363666.000000
1344.154435,-0.562651,371502.000000,1357101.000000
1348.603555,-0.559648,371615.000000,1348160.000000
1351.935262,-0.557095,370997.000000,1338030.000000
1355.262569,-0.551940,371791.000000,1325071.000000
1358.585475,-0.549042,370879.000000,1313029.000000
1361.903982,-0.545241,370539.000000,1300395.000000
1365.218088,-0.540276,371657.000000,1289491.000000
1369.630052,-0.535504,372397.000000,1277938.000000
1372.933891,-0.532676,372524.000000,1270078.000000
1376.233331,-0.530151,372314.000000,1262002.000000
1379.528370,-0.528537,371243.000000,1253705.000000
1382.819009,-0.527735,369231.000000,1244609.000000
1386.105248,-0.526541,367705.000000,1236062.000000
1389.387087,-0.523620,367073.000000,1225666.000000
1393.756027,-0.519170,365715.000000,1208683.000000
1397.027599,-0.514951,365152.000000,1195155.000000
1400.294771,-0.509083,365097.000000,1178940.000000
1403.557542,-0.503308,364333.000000,1160930.000000
1406.815914,-0.494668,365413.000000,1141436.000000
1410.069885,-0.486079,365734.000000,1120068.000000
1413.319456,-0.477168,364947.000000,1094959.000000
1417.645373,-0.463159,365539.000000,1061923.000000
1420.884678,-0.453646,365230.000000,1038035.000000
1424.119582,-0.444024,365533.000000,1016132.000000
1427.350086,-0.435796,364906.000000,995352.000000
1430.576190,-0.428405,365583.000000,980373.000000
1433.797894,-0.421262,365648.000000,964552.000000
1437.015198,-0.415593,365698.000000,952172.000000
1441.298091,-0.410783,364890.000000,939604.000000
1444.505128,-0.406687,364741.000000,930405.000000
1447.707765,-0.403160,364393.000000,921999.000000
1450.906001,-0.401157,363044.000000,914357.000000
1454.099838,-0.397695,362635.000000,906076.000000
1457.289274,-0.395241,361653.000000,898532.000000
1461.535011,-0.391101,360303.000000,886684.000000
1464.714180,-0.388287,358064.000000,875483.000000
1467.888950,-0.385099,356949.000000,866374.000000
1471.059319,-0.381098,355912.000000,855935.000000
1474.225288,-0.379773,353737.000000,848113.000000
1477.386857,-0.376719,352477.000000,839169.000000
1480.544025,-0.375329,349693.000000,829882.000000
1484.746739,-0.373022,347943.000000,821353.000000
1487.893641,-0.373447,344781.000000,814687.000000
1491.036142,-0.373635,342531.000000,809720.000000
1494.174244,-0.374090,340170.000000,804981.000000
1497.307945,-0.375762,337701.000000,802222.000000
1500.437247,-0.377506,334446.000000,797686.000000
1503.562148,-0.379326,331876.000000,794881.000000
1507.721838,-0.381955,327918.000000,790170.000000
1510.836473,-0.382872,324967.000000,784713.000000
1513.946707,-0.384511,321718.000000,779806.000000
1517.052541,-0.385708,319073.000000,775529.000000
1520.153975,-0.387265,315575.000000,769781.000000
1523.251008,-0.389238,311252.000000,762694.000000
1527.373542,-0.390628,306492.000000,753438.000000
1530.460309,-0.390645,302471.000000,743582.000000
1533.542676,-0.391179,298873.000000,735640.000000
1536.620642,-0.391720,294593.000000,726009.000000
1539.694209,-0.391887,290524.000000,716257.000000
1542.763375,-0.393585,285805.000000,707383.000000
1545.828141,-0.393972,281854.000000,698226.000000
1549.907652,-0.396319,274841.000000,684543.000000
1552.962151,-0.396868,270515.000000,674620.000000
1556.012250,-0.399586,265203.000000,665525.000000
1559.057949,-0.402478,260042.000000,656933.000000
1562.099248,-0.401083,255973.000000,644580.000000
1565.136147,-0.402031,250523.000000,632235.000000
1568.168646,-0.403655,245616.000000,622173.000000
1572.205133,-0.406243,238774.000000,608457.000000
1575.227365,-0.405743,234179.000000,596061.000000
1578.245196,-0.408280,228934.000000,586125.000000
1581.258628,-0.409744,223478.000000,574088.000000
1584.267659,-0.411587,218239.000000,563014.000000
1587.272290,-0.412390,213357.000000,551438.000000
1591.271621,-0.415218,206678.000000,537666.000000
1594.265985,-0.420067,200655.000000,527858.000000
1597.255949,-0.423464,196105.000000,519939.000000
1600.241513,-0.425823,191413.000000,510263.000000
1603.222677,-0.430716,186271.000000,502182.000000
1606.199441,-0.433495,181567.000000,492643.000000
1609.171805,-0.438071,176656.000000,484395.000000
1613.128112,-0.442960,170106.000000,471715.000000
1616.090209,-0.447740,165195.000000,463166.000000
1619.047905,-0.451054,160661.000000,453904.000000
1622.001202,-0.459262,154762.000000,445581.000000
1624.950098,-0.462757,149284.000000,433282.000000
1627.894595,-0.468478,144304.000000,424381.000000
1630.834691,-0.474846,138573.000000,413547.000000
1634.747975,-0.484976,131373.000000,401312.000000
1637.677804,-0.490069,126061.000000,389628.000000
1640.603233,-0.500074,120043.000000,379674.000000
1643.524262,-0.510144,114222.000000,369738.000000
1646.440891,-0.514622,109595.000000,358437.000000
1649.353120,-0.521731,104146.000000,346237.000000
1653.229247,-0.511617,102337.000000,332391.000000
1656.131209,-0.507430,100118.000000,322064.000000
1659.028770,-0.511508,95076.000000,308730.000000
1661.921932,-0.500386,93881.000000,297142.000000
1664.810693,-0.498709,90392.000000,284996.000000
1667.695055,-0.499631,85969.000000,271627.000000
1670.575016,-0.496570,82225.000000,257973.000000
1674.408120,-0.473310,78925.000000,234706.000000
1677.277814,-inf,0.000000,216091.000000
1680.143108,-inf,0.000000,195713.000000
1683.004002,nan,-2147483648.000000,171656.000000
1685.860496,nan,-2147483648.000000,150133.000000
1688.712590,nan,-2147483648.000000,128699.000000
1691.560283,nan,-2147483648.000000,108394.000000
1695.350364,nan,-2147483648.000000,85047.000000
1698.187790,nan,-2147483648.000000,70230.000000
1701.020817,-inf,0.000000,58824.000000
