Method:,erol,,
Host Date-Time:,7/12/23 @ 14:5:55,,
Header Version:,1,,
System Temp (C):,40.4,,
Detector Temp (C):,27.2,,
Humidity (%):,17.35,,
Lamp PD:,3530,,
Shift Vector Coefficients:,-4.80707,0.053312,-0.000138677,,
Pixel to Wavelength Coefficients:,1763.6,-0.910608,-0.000244451,,
Serial Number:,6110061,,
Scan Config Name:,erol,,
Scan Config Type:,Slew,,
Section 1,,
Start wavelength (nm):,900,,
End wavelength (nm):,1700,,
Pattern Pixel Width (nm):,  11.71,,,,
Exposure (ms):,  0.635,,,,
Digital Resolution:,228,,
Num Repeats:,1,,
PGA Gain:,64,,
Total Measurement Time in sec:,  1.593,,
Wavelength (nm),Absorbance (AU),Reference Signal (unitless),Sample Signal (unitless)
901.370984,-0.742244,22318.000000,123282.000000
905.248306,-0.732531,26694.000000,144193.000000
909.121227,-0.724560,30240.000000,160377.000000
912.989749,-0.697118,35053.000000,174519.000000
918.140932,-0.693013,39668.000000,195638.000000
921.999187,-0.684338,44171.000000,213538.000000
925.853041,-0.679192,49463.000000,236305.000000
929.702495,-0.680061,55176.000000,264126.000000
933.547549,-0.674362,62603.000000,295772.000000
937.388203,-0.667516,70557.000000,328138.000000
941.224457,-0.662030,79215.000000,363779.000000
946.332618,-0.655784,90003.000000,407419.000000
950.158605,-0.652464,97001.000000,435753.000000
953.980191,-0.646867,104340.000000,462719.000000
957.797378,-0.643431,111157.000000,489066.000000
961.610165,-0.641319,117414.000000,514090.000000
965.418551,-0.638763,124361.000000,541311.000000
969.222537,-0.634997,131496.000000,567427.000000
974.287675,-0.632178,140925.000000,604180.000000
978.081394,-0.630081,148023.000000,631554.000000
981.870713,-0.628952,155197.000000,660443.000000
985.655632,-0.628707,162010.000000,689047.000000
989.436151,-0.624455,170019.000000,716065.000000
993.212270,-0.624466,176266.000000,742395.000000
998.240251,-0.621047,184964.000000,772920.000000
1002.006103,-0.620180,190519.000000,794544.000000
1005.767554,-0.617512,196102.000000,812820.000000
1009.524606,-0.616427,200098.000000,827312.000000
1013.277258,-0.614361,204164.000000,840118.000000
1017.025509,-0.614193,206631.000000,849940.000000
1020.769360,-0.612612,209246.000000,857569.000000
1025.754318,-0.610413,211932.000000,864191.000000
1029.487902,-0.609901,213316.000000,868810.000000
1033.217086,-0.608749,213821.000000,868560.000000
1036.941870,-0.608602,213615.000000,867429.000000
1040.662255,-0.607023,213930.000000,865555.000000
1044.378238,-0.606473,213905.000000,864358.000000
1048.089822,-0.605647,213173.000000,859763.000000
1053.031756,-0.603947,211884.000000,851227.000000
1056.733073,-0.603902,211098.000000,847981.000000
1060.429990,-0.602954,209880.000000,841249.000000
1064.122506,-0.602522,209078.000000,837203.000000
1067.810623,-0.602739,208224.000000,834199.000000
1071.494339,-0.602932,206922.000000,829351.000000
1076.399116,-0.601757,206676.000000,826127.000000
1080.072566,-0.602330,206200.000000,825313.000000
1083.741615,-0.601733,205636.000000,821924.000000
1087.406264,-0.601201,205874.000000,821868.000000
1091.066513,-0.600095,205797.000000,819472.000000
1094.722362,-0.601098,205514.000000,820237.000000
1098.373811,-0.601611,205628.000000,821663.000000
1103.235565,-0.599902,206788.000000,823053.000000
1106.876747,-0.600929,206389.000000,823408.000000
1110.513529,-0.600763,206615.000000,823995.000000
1114.145910,-0.600701,206738.000000,824369.000000
1117.773892,-0.600737,206547.000000,823675.000000
1121.397473,-0.600513,207088.000000,825407.000000
1125.016654,-0.601965,206464.000000,825675.000000
1129.835385,-0.600524,207418.000000,826743.000000
1133.444299,-0.600255,207695.000000,827334.000000
1137.048813,-0.598148,208493.000000,826493.000000
1140.648927,-0.598165,208223.000000,825455.000000
1144.244641,-0.597914,208337.000000,825430.000000
1147.835955,-0.596741,208774.000000,824931.000000
1152.617529,-0.596299,208238.000000,821976.000000
1156.198576,-0.595050,208484.000000,820584.000000
1159.775223,-0.593306,208962.000000,819169.000000
1163.347470,-0.592442,209317.000000,818930.000000
1166.915316,-0.591142,209935.000000,818892.000000
1170.478763,-0.588295,211435.000000,819355.000000
1174.037809,-0.584846,213105.000000,819294.000000
1178.776359,-0.581992,214394.000000,818851.000000
1182.325139,-0.575332,217962.000000,819809.000000
1185.869518,-0.572615,220075.000000,822595.000000
1189.409497,-0.568564,222694.000000,824656.000000
1192.945076,-0.566077,224594.000000,826943.000000
1196.476255,-0.563762,226828.000000,830727.000000
1200.003034,-0.561127,229675.000000,836067.000000
1204.698561,-0.560299,232729.000000,845570.000000
1208.215073,-0.558038,235830.000000,852387.000000
1211.727185,-0.557964,238631.000000,862365.000000
1215.234896,-0.556402,241974.000000,871306.000000
1218.738208,-0.554786,245450.000000,880539.000000
1222.237119,-0.554088,248996.000000,891826.000000
1226.895489,-0.553812,254001.000000,909174.000000
1230.384134,-0.553958,257796.000000,923069.000000
1233.868378,-0.555545,261030.000000,938071.000000
1237.348222,-0.556024,264910.000000,953064.000000
1240.823666,-0.556472,269187.000000,969452.000000
1244.294710,-0.555592,274535.000000,986711.000000
1247.761354,-0.557571,278817.000000,1006678.000000
1252.376701,-0.557525,285943.000000,1032296.000000
1255.833078,-0.557084,292339.000000,1054315.000000
1259.285055,-0.557048,298387.000000,1076039.000000
1262.732632,-0.558000,303484.000000,1096822.000000
1266.175808,-0.558272,308643.000000,1116164.000000
1269.614584,-0.557667,313923.000000,1133679.000000
1273.048961,-0.557265,319097.000000,1151299.000000
1277.621284,-0.559408,324380.000000,1176149.000000
1281.045394,-0.558212,329793.000000,1192487.000000
1284.465103,-0.559965,333450.000000,1210587.000000
1287.880412,-0.560828,337104.000000,1226287.000000
1291.291321,-0.561697,340768.000000,1242098.000000
1294.697830,-0.561820,344605.000000,1256440.000000
1299.232997,-0.562344,349244.000000,1274892.000000
1302.629239,-0.562497,352441.000000,1287014.000000
1306.021081,-0.561840,355144.000000,1294924.000000
1309.408522,-0.561771,357732.000000,1304155.000000
1312.791564,-0.560962,360160.000000,1310561.000000
1316.170205,-0.561542,362173.000000,1319648.000000
1319.544447,-0.560764,364403.000000,1325397.000000
1324.036591,-0.560691,366317.000000,1332134.000000
1327.400565,-0.560886,366589.000000,1333721.000000
1330.760139,-0.559135,368623.000000,1335725.000000
1334.115313,-0.559023,368498.000000,1334929.000000
1337.466087,-0.556989,370046.000000,1334273.000000
1340.812461,-0.555673,370709.000000,1332620.000000
1344.154435,-0.553484,371502.000000,1328755.000000
1348.603555,-0.549889,371615.000000,1318204.000000
1351.935262,-0.547739,370997.000000,1309512.000000
1355.262569,-0.543296,371791.000000,1298957.000000
1358.585475,-0.540532,370879.000000,1287550.000000
1361.903982,-0.537200,370539.000000,1276539.000000
1365.218088,-0.532211,371657.000000,1265766.000000
1369.630052,-0.527850,372397.000000,1255614.000000
1372.933891,-0.525168,372524.000000,1248309.000000
1376.233331,-0.523239,372314.000000,1242076.000000
1379.528370,-0.521381,371243.000000,1233216.000000
1382.819009,-0.520795,369231.000000,1224878.000000
1386.105248,-0.519690,367705.000000,1216716.000000
1389.387087,-0.516295,367073.000000,1205167.000000
1393.756027,-0.512991,365715.000000,1191610.000000
1397.027599,-0.508230,365152.000000,1176802.000000
1400.294771,-0.503268,365097.000000,1163258.000000
1403.557542,-0.497944,364333.000000,1146682.000000
1406.815914,-0.489851,365413.000000,1128847.000000
1410.069885,-0.481183,365734.000000,1107513.000000
1413.319456,-0.473140,364947.000000,1084851.000000
1417.645373,-0.459829,365539.000000,1053812.000000
1420.884678,-0.451008,365230.000000,1031751.000000
1424.119582,-0.441958,365533.000000,1011311.000000
1427.350086,-0.434276,364906.000000,991876.000000
1430.576190,-0.426765,365583.000000,976676.000000
1433.797894,-0.420099,365648.000000,961971.000000
1437.015198,-0.415355,365698.000000,951651.000000
1441.298091,-0.410319,364890.000000,938600.000000
1444.505128,-0.406372,364741.000000,929730.000000
1447.707765,-0.403244,364393.000000,922177.000000
1450.906001,-0.400862,363044.000000,913738.000000
1454.099838,-0.398142,362635.000000,907009.000000
1457.289274,-0.394685,361653.000000,897381.000000
1461.535011,-0.390487,360303.000000,885431.000000
1464.714180,-0.388498,358064.000000,875909.000000
1467.888950,-0.384673,356949.000000,865524.000000
1471.059319,-0.381140,355912.000000,856018.000000
1474.225288,-0.378616,353737.000000,845856.000000
1477.386857,-0.375867,352477.000000,837525.000000
1480.544025,-0.374887,349693.000000,829038.000000
1484.746739,-0.372991,347943.000000,821294.000000
1487.893641,-0.373475,344781.000000,814738.000000
1491.036142,-0.373751,342531.000000,809937.000000
1494.174244,-0.373864,340170.000000,804562.000000
1497.307945,-0.375372,337701.000000,801501.000000
1500.437247,-0.377112,334446.000000,796962.000000
1503.562148,-0.378590,331876.000000,793534.000000
1507.721838,-0.381674,327918.000000,789658.000000
1510.836473,-0.382445,324967.000000,783943.000000
1513.946707,-0.384757,321718.000000,780248.000000
1517.052541,-0.384992,319073.000000,774251.000000
1520.153975,-0.387230,315575.000000,769719.000000
1523.251008,-0.388866,311252.000000,762041.000000
1527.373542,-0.389930,306492.000000,752227.000000
1530.460309,-0.390304,302471.000000,742998.000000
1533.542676,-0.389217,298873.000000,732324.000000
1536.620642,-0.391313,294593.000000,725330.000000
1539.694209,-0.390705,290524.000000,714311.000000
1542.763375,-0.391748,285805.000000,704397.000000
1545.828141,-0.392435,281854.000000,695759.000000
1549.907652,-0.395215,274841.000000,682805.000000
1552.962151,-0.395713,270515.000000,672829.000000
1556.012250,-0.397872,265203.000000,662904.000000
1559.057949,-0.400433,260042.000000,653848.000000
1562.099248,-0.399180,255973.000000,641762.000000
1565.136147,-0.401273,250523.000000,631133.000000
1568.168646,-0.402534,245616.000000,620570.000000
1572.205133,-0.405189,238774.000000,606982.000000
1575.227365,-0.404711,234179.000000,594646.000000
1578.245196,-0.405612,228934.000000,582536.000000
1581.258628,-0.407556,223478.000000,571204.000000
1584.267659,-0.400333,218239.000000,548612.000000
1587.272290,-0.410968,213357.000000,549636.000000
1591.271621,-0.413670,206678.000000,535753.000000
1594.265985,-0.418080,200655.000000,525448.000000
1597.255949,-0.420706,196105.000000,516648.000000
1600.241513,-0.424249,191413.000000,508418.000000
1603.222677,-0.428397,186271.000000,499508.000000
1606.199441,-0.431876,181567.000000,490810.000000
1609.171805,-0.435343,176656.000000,481362.000000
1613.128112,-0.440891,170106.000000,469473.000000
1616.090209,-0.446207,165195.000000,461534.000000
1619.047905,-0.449201,160661.000000,451972.000000
1622.001202,-0.455755,154762.000000,441997.000000
1624.950098,-0.461875,149284.000000,432403.000000
1627.894595,-0.465885,144304.000000,421855.000000
1630.834691,-0.472827,138573.000000,411629.000000
1634.747975,-0.481028,131373.000000,397680.000000
1637.677804,-0.487806,126061.000000,387603.000000
1640.603233,-0.496118,120043.000000,376231.000000
1643.524262,-0.503812,114222.000000,364386.000000
1646.440891,-0.508984,109595.000000,353814.000000
1649.353120,-0.516842,104146.000000,342361.000000
1653.229247,-0.506722,102337.000000,328666.000000
1656.131209,-0.501191,100118.000000,317470.000000
1659.028770,-0.507686,95076.000000,306025.000000
1661.921932,-0.495365,93881.000000,293726.000000
1664.810693,-0.493856,90392.000000,281829.000000
1667.695055,-0.493950,85969.000000,268097.000000
1670.575016,-0.489229,82225.000000,253649.000000
1674.408120,-0.468578,78925.000000,232163.000000
1677.277814,-inf,0.000000,212391.000000
1680.143108,-inf,0.000000,192339.000000
1683.004002,nan,-2147483648.000000,169993.000000
1685.860496,nan,-2147483648.000000,146218.000000
1688.712590,nan,-2147483648.000000,126307.000000
1691.560283,nan,-2147483648.000000,106957.000000
1695.350364,nan,-2147483648.000000,83441.000000
1698.187790,nan,-2147483648.000000,71162.000000
1701.020817,-inf,0.000000,58194.000000
