Method:,erol,,
Host Date-Time:,7/12/23 @ 13:51:40,,
Header Version:,1,,
System Temp (C):,38.72,,
Detector Temp (C):,24.62,,
Humidity (%):,20.56,,
Lamp PD:,3513,,
Shift Vector Coefficients:,-4.80707,0.053312,-0.000138677,,
Pixel to Wavelength Coefficients:,1763.6,-0.910608,-0.000244451,,
Serial Number:,6110061,,
Scan Config Name:,erol,,
Scan Config Type:,Slew,,
Section 1,,
Start wavelength (nm):,900,,
End wavelength (nm):,1700,,
Pattern Pixel Width (nm):,  11.71,,,,
Exposure (ms):,  0.635,,,,
Digital Resolution:,228,,
Num Repeats:,1,,
PGA Gain:,64,,
Total Measurement Time in sec:,  1.592,,
Wavelength (nm),Absorbance (AU),Reference Signal (unitless),Sample Signal (unitless)
901.370984,-0.743173,22318.000000,123546.000000
905.248306,-0.734286,26694.000000,144777.000000
909.121227,-0.723983,30240.000000,160164.000000
912.989749,-0.696161,35053.000000,174135.000000
918.140932,-0.694434,39668.000000,196279.000000
921.999187,-0.688022,44171.000000,215357.000000
925.853041,-0.682650,49463.000000,238194.000000
929.702495,-0.684094,55176.000000,266590.000000
933.547549,-0.677556,62603.000000,297955.000000
937.388203,-0.671811,70557.000000,331399.000000
941.224457,-0.665381,79215.000000,366597.000000
946.332618,-0.657099,90003.000000,408654.000000
950.158605,-0.652628,97001.000000,435917.000000
953.980191,-0.647821,104340.000000,463737.000000
957.797378,-0.644234,111157.000000,489972.000000
961.610165,-0.643273,117414.000000,516408.000000
965.418551,-0.640523,124361.000000,543509.000000
969.222537,-0.636516,131496.000000,569415.000000
974.287675,-0.633654,140925.000000,606236.000000
978.081394,-0.632884,148023.000000,635643.000000
981.870713,-0.631045,155197.000000,663634.000000
985.655632,-0.630677,162010.000000,692179.000000
989.436151,-0.626127,170019.000000,718827.000000
993.212270,-0.626350,176266.000000,745622.000000
998.240251,-0.623578,184964.000000,777437.000000
1002.006103,-0.622323,190519.000000,798475.000000
1005.767554,-0.619992,196102.000000,817474.000000
1009.524606,-0.619464,200098.000000,833118.000000
1013.277258,-0.616868,204164.000000,844982.000000
1017.025509,-0.616365,206631.000000,854202.000000
1020.769360,-0.614508,209246.000000,861322.000000
1025.754318,-0.613167,211932.000000,869689.000000
1029.487902,-0.611489,213316.000000,871992.000000
1033.217086,-0.610872,213821.000000,872816.000000
1036.941870,-0.610785,213615.000000,871799.000000
1040.662255,-0.609044,213930.000000,869593.000000
1044.378238,-0.608849,213905.000000,869101.000000
1048.089822,-0.607671,213173.000000,863781.000000
1053.031756,-0.607155,211884.000000,857537.000000
1056.733073,-0.606294,211098.000000,852664.000000
1060.429990,-0.605580,209880.000000,846352.000000
1064.122506,-0.604888,209078.000000,841776.000000
1067.810623,-0.604035,208224.000000,836693.000000
1071.494339,-0.605041,206922.000000,833389.000000
1076.399116,-0.603571,206676.000000,829586.000000
1080.072566,-0.603492,206200.000000,827524.000000
1083.741615,-0.604122,205636.000000,826458.000000
1087.406264,-0.602365,205874.000000,824074.000000
1091.066513,-0.602266,205797.000000,823579.000000
1094.722362,-0.603622,205514.000000,825018.000000
1098.373811,-0.603571,205628.000000,825379.000000
1103.235565,-0.601497,206788.000000,826080.000000
1106.876747,-0.602226,206389.000000,825872.000000
1110.513529,-0.601824,206615.000000,826011.000000
1114.145910,-0.601820,206738.000000,826495.000000
1117.773892,-0.602429,206547.000000,826891.000000
1121.397473,-0.602459,207088.000000,829113.000000
1125.016654,-0.603952,206464.000000,829461.000000
1129.835385,-0.601888,207418.000000,829343.000000
1133.444299,-0.601412,207695.000000,829542.000000
1137.048813,-0.599636,208493.000000,829331.000000
1140.648927,-0.599906,208223.000000,828772.000000
1144.244641,-0.600031,208337.000000,829464.000000
1147.835955,-0.598804,208774.000000,828858.000000
1152.617529,-0.599480,208238.000000,828018.000000
1156.198576,-0.597596,208484.000000,825409.000000
1159.775223,-0.596017,208962.000000,824299.000000
1163.347470,-0.595566,209317.000000,824842.000000
1166.915316,-0.594222,209935.000000,824721.000000
1170.478763,-0.591404,211435.000000,825241.000000
1174.037809,-0.587992,213105.000000,825250.000000
1178.776359,-0.586370,214394.000000,827147.000000
1182.325139,-0.579339,217962.000000,827408.000000
1185.869518,-0.576662,220075.000000,830295.000000
1189.409497,-0.572730,222694.000000,832605.000000
1192.945076,-0.570813,224594.000000,836009.000000
1196.476255,-0.569364,226828.000000,841513.000000
1200.003034,-0.567088,229675.000000,847621.000000
1204.698561,-0.566207,232729.000000,857152.000000
1208.215073,-0.564164,235830.000000,864496.000000
1211.727185,-0.563420,238631.000000,873267.000000
1215.234896,-0.562223,241974.000000,883063.000000
1218.738208,-0.561207,245450.000000,893655.000000
1222.237119,-0.560749,248996.000000,905610.000000
1226.895489,-0.560870,254001.000000,924072.000000
1230.384134,-0.560454,257796.000000,936979.000000
1233.868378,-0.561766,261030.000000,951604.000000
1237.348222,-0.562569,264910.000000,967537.000000
1240.823666,-0.563100,269187.000000,984360.000000
1244.294710,-0.562676,274535.000000,1002937.000000
1247.761354,-0.563441,278817.000000,1020376.000000
1252.376701,-0.564395,285943.000000,1048756.000000
1255.833078,-0.563887,292339.000000,1070961.000000
1259.285055,-0.563087,298387.000000,1091106.000000
1262.732632,-0.564252,303484.000000,1112725.000000
1266.175808,-0.564231,308643.000000,1131586.000000
1269.614584,-0.564266,313923.000000,1151037.000000
1273.048961,-0.563759,319097.000000,1168643.000000
1277.621284,-0.565865,324380.000000,1193766.000000
1281.045394,-0.564561,329793.000000,1210048.000000
1284.465103,-0.566148,333450.000000,1227945.000000
1287.880412,-0.567002,337104.000000,1243845.000000
1291.291321,-0.567344,340768.000000,1258354.000000
1294.697830,-0.567473,344605.000000,1272902.000000
1299.232997,-0.567655,349244.000000,1290576.000000
1302.629239,-0.567787,352441.000000,1302787.000000
1306.021081,-0.567615,355144.000000,1312259.000000
1309.408522,-0.567417,357732.000000,1321219.000000
1312.791564,-0.567358,360160.000000,1330007.000000
1316.170205,-0.567263,362173.000000,1337146.000000
1319.544447,-0.566879,364403.000000,1344191.000000
1324.036591,-0.566882,366317.000000,1351259.000000
1327.400565,-0.567548,366589.000000,1354338.000000
1330.760139,-0.565454,368623.000000,1355303.000000
1334.115313,-0.566210,368498.000000,1357204.000000
1337.466087,-0.563948,370046.000000,1355826.000000
1340.812461,-0.562552,370709.000000,1353896.000000
1344.154435,-0.560469,371502.000000,1350301.000000
1348.603555,-0.557939,371615.000000,1342866.000000
1351.935262,-0.555870,370997.000000,1334259.000000
1355.262569,-0.551600,371791.000000,1324034.000000
1358.585475,-0.549157,370879.000000,1313378.000000
1361.903982,-0.546340,370539.000000,1303689.000000
1365.218088,-0.541219,371657.000000,1292294.000000
1369.630052,-0.536683,372397.000000,1281412.000000
1372.933891,-0.534621,372524.000000,1275777.000000
1376.233331,-0.532844,372314.000000,1269852.000000
1379.528370,-0.531259,371243.000000,1261588.000000
1382.819009,-0.531146,369231.000000,1254422.000000
1386.105248,-0.529914,367705.000000,1245701.000000
1389.387087,-0.527274,367073.000000,1236022.000000
1393.756027,-0.524416,365715.000000,1223374.000000
1397.027599,-0.520428,365152.000000,1210323.000000
1400.294771,-0.515882,365097.000000,1197541.000000
1403.557542,-0.511015,364333.000000,1181718.000000
1406.815914,-0.503586,365413.000000,1165117.000000
1410.069885,-0.495682,365734.000000,1145111.000000
1413.319456,-0.488160,364947.000000,1123025.000000
1417.645373,-0.476222,365539.000000,1094349.000000
1420.884678,-0.467583,365230.000000,1071888.000000
1424.119582,-0.459239,365533.000000,1052364.000000
1427.350086,-0.452338,364906.000000,1033996.000000
1430.576190,-0.445779,365583.000000,1020387.000000
1433.797894,-0.439655,365648.000000,1006279.000000
1437.015198,-0.434514,365698.000000,994573.000000
1441.298091,-0.430169,364890.000000,982497.000000
1444.505128,-0.426456,364741.000000,973734.000000
1447.707765,-0.422888,364393.000000,964847.000000
1450.906001,-0.420422,363044.000000,955832.000000
1454.099838,-0.416509,362635.000000,946191.000000
1457.289274,-0.413810,361653.000000,937782.000000
1461.535011,-0.409012,360303.000000,924017.000000
1464.714180,-0.406416,358064.000000,912802.000000
1467.888950,-0.402426,356949.000000,901637.000000
1471.059319,-0.397732,355912.000000,889354.000000
1474.225288,-0.396238,353737.000000,880884.000000
1477.386857,-0.392351,352477.000000,869924.000000
1480.544025,-0.391691,349693.000000,861744.000000
1484.746739,-0.388438,347943.000000,851032.000000
1487.893641,-0.388893,344781.000000,844183.000000
1491.036142,-0.389266,342531.000000,839394.000000
1494.174244,-0.389278,340170.000000,833632.000000
1497.307945,-0.390057,337701.000000,829067.000000
1500.437247,-0.392287,334446.000000,825302.000000
1503.562148,-0.393668,331876.000000,821569.000000
1507.721838,-0.397153,327918.000000,818310.000000
1510.836473,-0.398672,324967.000000,813788.000000
1513.946707,-0.400835,321718.000000,809675.000000
1517.052541,-0.401191,319073.000000,803677.000000
1520.153975,-0.402753,315575.000000,797729.000000
1523.251008,-0.405151,311252.000000,791158.000000
1527.373542,-0.405205,306492.000000,779155.000000
1530.460309,-0.405719,302471.000000,769844.000000
1533.542676,-0.404862,298873.000000,759187.000000
1536.620642,-0.405813,294593.000000,749955.000000
1539.694209,-0.405276,290524.000000,738683.000000
1542.763375,-0.406920,285805.000000,729440.000000
1545.828141,-0.406928,281854.000000,719369.000000
1549.907652,-0.409334,274841.000000,705367.000000
1552.962151,-0.409990,270515.000000,695314.000000
1556.012250,-0.412221,265203.000000,685171.000000
1559.057949,-0.413627,260042.000000,674017.000000
1562.099248,-0.413460,255973.000000,663214.000000
1565.136147,-0.415481,250523.000000,652122.000000
1568.168646,-0.415733,245616.000000,639719.000000
1572.205133,-0.417467,238774.000000,624387.000000
1575.227365,-0.418251,234179.000000,613478.000000
1578.245196,-0.419873,228934.000000,601982.000000
1581.258628,-0.420970,223478.000000,589122.000000
1584.267659,-0.420172,218239.000000,574255.000000
1587.272290,-0.423609,213357.000000,565869.000000
1591.271621,-0.426324,206678.000000,551593.000000
1594.265985,-0.431605,200655.000000,542070.000000
1597.255949,-0.433522,196105.000000,532121.000000
1600.241513,-0.436236,191413.000000,522646.000000
1603.222677,-0.440696,186271.000000,513856.000000
1606.199441,-0.443122,181567.000000,503685.000000
1609.171805,-0.446536,176656.000000,493929.000000
1613.128112,-0.452515,170106.000000,482208.000000
1616.090209,-0.457301,165195.000000,473476.000000
1619.047905,-0.459965,160661.000000,463314.000000
1622.001202,-0.466421,154762.000000,452987.000000
1624.950098,-0.472458,149284.000000,443069.000000
1627.894595,-0.476641,144304.000000,432434.000000
1630.834691,-0.483988,138573.000000,422344.000000
1634.747975,-0.490847,131373.000000,406774.000000
1637.677804,-0.497647,126061.000000,396486.000000
1640.603233,-0.507553,120043.000000,386269.000000
1643.524262,-0.516864,114222.000000,375503.000000
1646.440891,-0.521833,109595.000000,364438.000000
1649.353120,-0.530365,104146.000000,353189.000000
1653.229247,-0.518407,102337.000000,337629.000000
1656.131209,-0.512194,100118.000000,325616.000000
1659.028770,-0.518128,95076.000000,313472.000000
1661.921932,-0.506025,93881.000000,301025.000000
1664.810693,-0.502419,90392.000000,287441.000000
1667.695055,-0.502350,85969.000000,273333.000000
1670.575016,-0.494048,82225.000000,256479.000000
1674.408120,-0.470108,78925.000000,232982.000000
1677.277814,-inf,0.000000,211763.000000
1680.143108,-inf,0.000000,188733.000000
1683.004002,nan,-2147483648.000000,164675.000000
1685.860496,nan,-2147483648.000000,140418.000000
1688.712590,nan,-2147483648.000000,120249.000000
1691.560283,nan,-2147483648.000000,100257.000000
1695.350364,nan,-2147483648.000000,78974.000000
1698.187790,nan,-2147483648.000000,66645.000000
1701.020817,-inf,0.000000,55271.000000
