Method:,erol,,
Host Date-Time:,7/12/23 @ 14:13:33,,
Header Version:,1,,
System Temp (C):,40.68,,
Detector Temp (C):,27.28,,
Humidity (%):,16.36,,
Lamp PD:,3535,,
Shift Vector Coefficients:,-4.80707,0.053312,-0.000138677,,
Pixel to Wavelength Coefficients:,1763.6,-0.910608,-0.000244451,,
Serial Number:,6110061,,
Scan Config Name:,erol,,
Scan Config Type:,Slew,,
Section 1,,
Start wavelength (nm):,900,,
End wavelength (nm):,1700,,
Pattern Pixel Width (nm):,  11.71,,,,
Exposure (ms):,  0.635,,,,
Digital Resolution:,228,,
Num Repeats:,1,,
PGA Gain:,64,,
Total Measurement Time in sec:,  1.592,,
Wavelength (nm),Absorbance (AU),Reference Signal (unitless),Sample Signal (unitless)
901.370984,-0.757478,22318.000000,127683.000000
905.248306,-0.746534,26694.000000,148918.000000
909.121227,-0.734254,30240.000000,163997.000000
912.989749,-0.710067,35053.000000,179801.000000
918.140932,-0.704228,39668.000000,200756.000000
921.999187,-0.698769,44171.000000,220753.000000
925.853041,-0.694627,49463.000000,244854.000000
929.702495,-0.693897,55176.000000,272676.000000
933.547549,-0.688514,62603.000000,305569.000000
937.388203,-0.683098,70557.000000,340125.000000
941.224457,-0.675866,79215.000000,375555.000000
946.332618,-0.669231,90003.000000,420231.000000
950.158605,-0.666977,97001.000000,450561.000000
953.980191,-0.659142,104340.000000,475984.000000
957.797378,-0.656344,111157.000000,503826.000000
961.610165,-0.657194,117414.000000,533229.000000
965.418551,-0.652766,124361.000000,559049.000000
969.222537,-0.648683,131496.000000,585593.000000
974.287675,-0.647472,140925.000000,625835.000000
978.081394,-0.646498,148023.000000,655884.000000
981.870713,-0.645088,155197.000000,685443.000000
985.655632,-0.644296,162010.000000,714230.000000
989.436151,-0.640269,170019.000000,742619.000000
993.212270,-0.640359,176266.000000,770066.000000
998.240251,-0.637287,184964.000000,802369.000000
1002.006103,-0.636326,190519.000000,824640.000000
1005.767554,-0.633127,196102.000000,842576.000000
1009.524606,-0.632389,200098.000000,858285.000000
1013.277258,-0.630466,204164.000000,871856.000000
1017.025509,-0.630774,206631.000000,883018.000000
1020.769360,-0.628864,209246.000000,890269.000000
1025.754318,-0.626926,211932.000000,897682.000000
1029.487902,-0.625028,213316.000000,899604.000000
1033.217086,-0.625097,213821.000000,901877.000000
1036.941870,-0.624771,213615.000000,900332.000000
1040.662255,-0.623048,213930.000000,898089.000000
1044.378238,-0.622543,213905.000000,896942.000000
1048.089822,-0.622169,213173.000000,893103.000000
1053.031756,-0.621014,211884.000000,885345.000000
1056.733073,-0.620116,211098.000000,880239.000000
1060.429990,-0.620148,209880.000000,875224.000000
1064.122506,-0.618735,209078.000000,869047.000000
1067.810623,-0.617416,208224.000000,862873.000000
1071.494339,-0.618335,206922.000000,859294.000000
1076.399116,-0.617574,206676.000000,856770.000000
1080.072566,-0.617010,206200.000000,853687.000000
1083.741615,-0.617361,205636.000000,852041.000000
1087.406264,-0.616224,205874.000000,850796.000000
1091.066513,-0.615341,205797.000000,848751.000000
1094.722362,-0.616297,205514.000000,849451.000000
1098.373811,-0.616040,205628.000000,849420.000000
1103.235565,-0.613023,206788.000000,848297.000000
1106.876747,-0.613349,206389.000000,847296.000000
1110.513529,-0.611259,206615.000000,844152.000000
1114.145910,-0.609481,206738.000000,841203.000000
1117.773892,-0.608073,206547.000000,837707.000000
1121.397473,-0.605026,207088.000000,834029.000000
1125.016654,-0.602923,206464.000000,827498.000000
1129.835385,-0.597851,207418.000000,821670.000000
1133.444299,-0.597538,207695.000000,822175.000000
1137.048813,-0.597975,208493.000000,826165.000000
1140.648927,-0.600688,208223.000000,830264.000000
1144.244641,-0.602597,208337.000000,834379.000000
1147.835955,-0.602963,208774.000000,836835.000000
1152.617529,-0.604665,208238.000000,837964.000000
1156.198576,-0.603074,208484.000000,835886.000000
1159.775223,-0.602302,208962.000000,836314.000000
1163.347470,-0.601110,209317.000000,835438.000000
1166.915316,-0.599838,209935.000000,835455.000000
1170.478763,-0.596641,211435.000000,835252.000000
1174.037809,-0.593727,213105.000000,836220.000000
1178.776359,-0.592352,214394.000000,838619.000000
1182.325139,-0.586697,217962.000000,841546.000000
1185.869518,-0.584766,220075.000000,845934.000000
1189.409497,-0.583060,222694.000000,852646.000000
1192.945076,-0.582103,224594.000000,858027.000000
1196.476255,-0.582214,226828.000000,866784.000000
1200.003034,-0.580526,229675.000000,874258.000000
1204.698561,-0.580657,232729.000000,886150.000000
1208.215073,-0.580174,235830.000000,896960.000000
1211.727185,-0.579936,238631.000000,907117.000000
1215.234896,-0.579694,241974.000000,919311.000000
1218.738208,-0.578828,245450.000000,930659.000000
1222.237119,-0.578043,248996.000000,942401.000000
1226.895489,-0.578306,254001.000000,961926.000000
1230.384134,-0.578457,257796.000000,976637.000000
1233.868378,-0.579268,261030.000000,990736.000000
1237.348222,-0.579747,264910.000000,1006573.000000
1240.823666,-0.579920,269187.000000,1023232.000000
1244.294710,-0.578559,274535.000000,1040296.000000
1247.761354,-0.580254,278817.000000,1060654.000000
1252.376701,-0.581362,285943.000000,1090540.000000
1255.833078,-0.580986,292339.000000,1113968.000000
1259.285055,-0.580324,298387.000000,1135282.000000
1262.732632,-0.581722,303484.000000,1158398.000000
1266.175808,-0.581617,308643.000000,1177806.000000
1269.614584,-0.581012,313923.000000,1196287.000000
1273.048961,-0.580461,319097.000000,1214462.000000
1277.621284,-0.582145,324380.000000,1239364.000000
1281.045394,-0.580786,329793.000000,1256109.000000
1284.465103,-0.581857,333450.000000,1273174.000000
1287.880412,-0.582662,337104.000000,1289514.000000
1291.291321,-0.583310,340768.000000,1305476.000000
1294.697830,-0.582703,344605.000000,1318332.000000
1299.232997,-0.583242,349244.000000,1337739.000000
1302.629239,-0.582834,352441.000000,1348716.000000
1306.021081,-0.582365,355144.000000,1357594.000000
1309.408522,-0.581968,357732.000000,1366236.000000
1312.791564,-0.581449,360160.000000,1373867.000000
1316.170205,-0.581680,362173.000000,1382281.000000
1319.544447,-0.581167,364403.000000,1389149.000000
1324.036591,-0.581100,366317.000000,1396230.000000
1327.400565,-0.581898,366589.000000,1399837.000000
1330.760139,-0.580255,368623.000000,1402288.000000
1334.115313,-0.580102,368498.000000,1401319.000000
1337.466087,-0.578484,370046.000000,1401974.000000
1340.812461,-0.576988,370709.000000,1399654.000000
1344.154435,-0.574685,371502.000000,1395230.000000
1348.603555,-0.570954,371615.000000,1383717.000000
1351.935262,-0.568680,370997.000000,1374201.000000
1355.262569,-0.564279,371791.000000,1363258.000000
1358.585475,-0.561551,370879.000000,1351399.000000
1361.903982,-0.558955,370539.000000,1342111.000000
1365.218088,-0.555218,371657.000000,1334628.000000
1369.630052,-0.552119,372397.000000,1327776.000000
1372.933891,-0.549953,372524.000000,1321621.000000
1376.233331,-0.548929,372314.000000,1317765.000000
1379.528370,-0.547361,371243.000000,1309240.000000
1382.819009,-0.547105,369231.000000,1301376.000000
1386.105248,-0.545557,367705.000000,1291386.000000
1389.387087,-0.543556,367073.000000,1283241.000000
1393.756027,-0.540739,365715.000000,1270227.000000
1397.027599,-0.538000,365152.000000,1260300.000000
1400.294771,-0.534354,365097.000000,1249575.000000
1403.557542,-0.531169,364333.000000,1237848.000000
1406.815914,-0.525371,365413.000000,1225053.000000
1410.069885,-0.519537,365734.000000,1209769.000000
1413.319456,-0.515444,364947.000000,1195842.000000
1417.645373,-0.507011,365539.000000,1174748.000000
1420.884678,-0.501858,365230.000000,1159910.000000
1424.119582,-0.496435,365533.000000,1146467.000000
1427.350086,-0.491902,364906.000000,1132616.000000
1430.576190,-0.487795,365583.000000,1124039.000000
1433.797894,-0.483609,365648.000000,1113453.000000
1437.015198,-0.479908,365698.000000,1104157.000000
1441.298091,-0.476900,364890.000000,1094112.000000
1444.505128,-0.473078,364741.000000,1084083.000000
1447.707765,-0.471622,364393.000000,1079425.000000
1450.906001,-0.469363,363044.000000,1069848.000000
1454.099838,-0.467208,362635.000000,1063353.000000
1457.289274,-0.464527,361653.000000,1053947.000000
1461.535011,-0.461826,360303.000000,1043503.000000
1464.714180,-0.459958,358064.000000,1032567.000000
1467.888950,-0.457130,356949.000000,1022671.000000
1471.059319,-0.453652,355912.000000,1011568.000000
1474.225288,-0.452382,353737.000000,1002450.000000
1477.386857,-0.449975,352477.000000,993357.000000
1480.544025,-0.449465,349693.000000,984356.000000
1484.746739,-0.447674,347943.000000,975399.000000
1487.893641,-0.448884,344781.000000,969232.000000
1491.036142,-0.448563,342531.000000,962195.000000
1494.174244,-0.448855,340170.000000,956204.000000
1497.307945,-0.449417,337701.000000,950493.000000
1500.437247,-0.452271,334446.000000,947539.000000
1503.562148,-0.453585,331876.000000,943107.000000
1507.721838,-0.456625,327918.000000,938404.000000
1510.836473,-0.458823,324967.000000,934679.000000
1513.946707,-0.461202,321718.000000,930417.000000
1517.052541,-0.461678,319073.000000,923778.000000
1520.153975,-0.463107,315575.000000,916663.000000
1523.251008,-0.465205,311252.000000,908484.000000
1527.373542,-0.466443,306492.000000,897144.000000
1530.460309,-0.466716,302471.000000,885930.000000
1533.542676,-0.467060,298873.000000,876086.000000
1536.620642,-0.467336,294593.000000,864089.000000
1539.694209,-0.467857,290524.000000,853177.000000
1542.763375,-0.468847,285805.000000,841234.000000
1545.828141,-0.468603,281854.000000,829139.000000
1549.907652,-0.469914,274841.000000,810953.000000
1552.962151,-0.469417,270515.000000,797275.000000
1556.012250,-0.471846,265203.000000,786003.000000
1559.057949,-0.473060,260042.000000,772864.000000
1562.099248,-0.471859,255973.000000,758671.000000
1565.136147,-0.473633,250523.000000,745556.000000
1568.168646,-0.473445,245616.000000,730637.000000
1572.205133,-0.475726,238774.000000,714025.000000
1575.227365,-0.475465,234179.000000,699863.000000
1578.245196,-0.476845,228934.000000,686366.000000
1581.258628,-0.477717,223478.000000,671355.000000
1584.267659,-0.479271,218239.000000,657966.000000
1587.272290,-0.480966,213357.000000,645763.000000
1591.271621,-0.481927,206678.000000,626933.000000
1594.265985,-0.486037,200655.000000,614451.000000
1597.255949,-0.486600,196105.000000,601296.000000
1600.241513,-0.488135,191413.000000,588988.000000
1603.222677,-0.490729,186271.000000,576600.000000
1606.199441,-0.491373,181567.000000,562872.000000
1609.171805,-0.494193,176656.000000,551215.000000
1613.128112,-0.495154,170106.000000,531953.000000
1616.090209,-0.496995,165195.000000,518790.000000
1619.047905,-0.498624,160661.000000,506447.000000
1622.001202,-0.501938,154762.000000,491589.000000
1624.950098,-0.506630,149284.000000,479340.000000
1627.894595,-0.506418,144304.000000,463123.000000
1630.834691,-0.509966,138573.000000,448378.000000
1634.747975,-0.511003,131373.000000,426098.000000
1637.677804,-0.511074,126061.000000,408935.000000
1640.603233,-0.510459,120043.000000,388862.000000
1643.524262,-0.510299,114222.000000,369870.000000
1646.440891,-0.501555,109595.000000,347813.000000
1649.353120,-0.502212,104146.000000,331020.000000
1653.229247,-0.474607,102337.000000,305239.000000
1656.131209,-0.462691,100118.000000,290538.000000
1659.028770,-0.465247,95076.000000,277535.000000
1661.921932,-0.454993,93881.000000,267652.000000
1664.810693,-0.459292,90392.000000,260269.000000
1667.695055,-0.463782,85969.000000,250106.000000
1670.575016,-0.468788,82225.000000,241987.000000
1674.408120,-0.454829,78925.000000,224928.000000
1677.277814,-inf,0.000000,209015.000000
1680.143108,-inf,0.000000,189239.000000
1683.004002,nan,-2147483648.000000,169209.000000
1685.860496,nan,-2147483648.000000,149408.000000
1688.712590,nan,-2147483648.000000,128826.000000
1691.560283,nan,-2147483648.000000,109198.000000
1695.350364,nan,-2147483648.000000,86702.000000
1698.187790,nan,-2147483648.000000,72144.000000
1701.020817,-inf,0.000000,60258.000000
