Method:,erol,,
Host Date-Time:,7/12/23 @ 14:9:1,,
Header Version:,1,,
System Temp (C):,40.19,,
Detector Temp (C):,26.17,,
Humidity (%):,17.04,,
Lamp PD:,3481,,
Shift Vector Coefficients:,-4.80707,0.053312,-0.000138677,,
Pixel to Wavelength Coefficients:,1763.6,-0.910608,-0.000244451,,
Serial Number:,6110061,,
Scan Config Name:,erol,,
Scan Config Type:,Slew,,
Section 1,,
Start wavelength (nm):,900,,
End wavelength (nm):,1700,,
Pattern Pixel Width (nm):,  11.71,,,,
Exposure (ms):,  0.635,,,,
Digital Resolution:,228,,
Num Repeats:,1,,
PGA Gain:,64,,
Total Measurement Time in sec:,  1.593,,
Wavelength (nm),Absorbance (AU),Reference Signal (unitless),Sample Signal (unitless)
901.370984,-0.761766,22318.000000,128950.000000
905.248306,-0.747169,26694.000000,149136.000000
909.121227,-0.738397,30240.000000,165569.000000
912.989749,-0.714484,35053.000000,181639.000000
918.140932,-0.708797,39668.000000,202879.000000
921.999187,-0.700554,44171.000000,221662.000000
925.853041,-0.697073,49463.000000,246237.000000
929.702495,-0.695396,55176.000000,273619.000000
933.547549,-0.690297,62603.000000,306826.000000
937.388203,-0.686086,70557.000000,342473.000000
941.224457,-0.678271,79215.000000,377640.000000
946.332618,-0.670460,90003.000000,421422.000000
950.158605,-0.668135,97001.000000,451764.000000
953.980191,-0.663155,104340.000000,480403.000000
957.797378,-0.659040,111157.000000,506964.000000
961.610165,-0.657397,117414.000000,533479.000000
965.418551,-0.654431,124361.000000,561197.000000
969.222537,-0.651026,131496.000000,588761.000000
974.287675,-0.648133,140925.000000,626789.000000
978.081394,-0.646014,148023.000000,655154.000000
981.870713,-0.644023,155197.000000,683764.000000
985.655632,-0.642476,162010.000000,711243.000000
989.436151,-0.638512,170019.000000,739622.000000
993.212270,-0.638903,176266.000000,767488.000000
998.240251,-0.635651,184964.000000,799352.000000
1002.006103,-0.634200,190519.000000,820613.000000
1005.767554,-0.631518,196102.000000,839460.000000
1009.524606,-0.631029,200098.000000,855601.000000
1013.277258,-0.628701,204164.000000,868320.000000
1017.025509,-0.628426,206631.000000,878257.000000
1020.769360,-0.627305,209246.000000,887078.000000
1025.754318,-0.625243,211932.000000,894210.000000
1029.487902,-0.623882,213316.000000,897234.000000
1033.217086,-0.624148,213821.000000,899908.000000
1036.941870,-0.624900,213615.000000,900600.000000
1040.662255,-0.623307,213930.000000,898625.000000
1044.378238,-0.621988,213905.000000,895795.000000
1048.089822,-0.621487,213173.000000,891701.000000
1053.031756,-0.620905,211884.000000,885123.000000
1056.733073,-0.619419,211098.000000,878826.000000
1060.429990,-0.619521,209880.000000,873960.000000
1064.122506,-0.618572,209078.000000,868722.000000
1067.810623,-0.617794,208224.000000,863624.000000
1071.494339,-0.618014,206922.000000,858659.000000
1076.399116,-0.617449,206676.000000,856524.000000
1080.072566,-0.617059,206200.000000,853784.000000
1083.741615,-0.618280,205636.000000,853845.000000
1087.406264,-0.617341,205874.000000,852987.000000
1091.066513,-0.616167,205797.000000,850367.000000
1094.722362,-0.617650,205514.000000,852102.000000
1098.373811,-0.617846,205628.000000,852959.000000
1103.235565,-0.615650,206788.000000,853444.000000
1106.876747,-0.615946,206389.000000,852379.000000
1110.513529,-0.616807,206615.000000,855005.000000
1114.145910,-0.616854,206738.000000,855607.000000
1117.773892,-0.617372,206547.000000,855837.000000
1121.397473,-0.615766,207088.000000,854912.000000
1125.016654,-0.617283,206464.000000,855317.000000
1129.835385,-0.616086,207418.000000,856904.000000
1133.444299,-0.615031,207695.000000,855967.000000
1137.048813,-0.613280,208493.000000,855798.000000
1140.648927,-0.613451,208223.000000,855027.000000
1144.244641,-0.612074,208337.000000,852786.000000
1147.835955,-0.610951,208774.000000,852369.000000
1152.617529,-0.610192,208238.000000,848696.000000
1156.198576,-0.608372,208484.000000,846144.000000
1159.775223,-0.606897,208962.000000,845210.000000
1163.347470,-0.604905,209317.000000,842770.000000
1166.915316,-0.603455,209935.000000,842442.000000
1170.478763,-0.600267,211435.000000,842255.000000
1174.037809,-0.596604,213105.000000,841778.000000
1178.776359,-0.594737,214394.000000,843237.000000
1182.325139,-0.587441,217962.000000,842988.000000
1185.869518,-0.584039,220075.000000,844519.000000
1189.409497,-0.580206,222694.000000,847060.000000
1192.945076,-0.577556,224594.000000,849091.000000
1196.476255,-0.576171,226828.000000,854806.000000
1200.003034,-0.573697,229675.000000,860618.000000
1204.698561,-0.572318,232729.000000,869297.000000
1208.215073,-0.570801,235830.000000,877809.000000
1211.727185,-0.570012,238631.000000,886622.000000
1215.234896,-0.568851,241974.000000,896644.000000
1218.738208,-0.567901,245450.000000,907537.000000
1222.237119,-0.567074,248996.000000,918896.000000
1226.895489,-0.566728,254001.000000,936620.000000
1230.384134,-0.566271,257796.000000,949615.000000
1233.868378,-0.567727,261030.000000,964756.000000
1237.348222,-0.568141,264910.000000,980029.000000
1240.823666,-0.567810,269187.000000,995093.000000
1244.294710,-0.567716,274535.000000,1014645.000000
1247.761354,-0.569313,278817.000000,1034265.000000
1252.376701,-0.570501,285943.000000,1063606.000000
1255.833078,-0.569684,292339.000000,1085352.000000
1259.285055,-0.570038,298387.000000,1108710.000000
1262.732632,-0.571500,303484.000000,1131452.000000
1266.175808,-0.571680,308643.000000,1151163.000000
1269.614584,-0.571926,313923.000000,1171518.000000
1273.048961,-0.571856,319097.000000,1190635.000000
1277.621284,-0.573540,324380.000000,1215051.000000
1281.045394,-0.572996,329793.000000,1233779.000000
1284.465103,-0.574044,333450.000000,1250475.000000
1287.880412,-0.574881,337104.000000,1266615.000000
1291.291321,-0.575206,340768.000000,1281341.000000
1294.697830,-0.575253,344605.000000,1295908.000000
1299.232997,-0.575449,349244.000000,1313947.000000
1302.629239,-0.575364,352441.000000,1325715.000000
1306.021081,-0.575289,355144.000000,1335651.000000
1309.408522,-0.574898,357732.000000,1344175.000000
1312.791564,-0.574874,360160.000000,1353224.000000
1316.170205,-0.574520,362173.000000,1359678.000000
1319.544447,-0.573612,364403.000000,1365192.000000
1324.036591,-0.573231,366317.000000,1371160.000000
1327.400565,-0.573323,366589.000000,1372470.000000
1330.760139,-0.570844,368623.000000,1372229.000000
1334.115313,-0.570838,368498.000000,1371745.000000
1337.466087,-0.569016,370046.000000,1371740.000000
1340.812461,-0.567218,370709.000000,1368521.000000
1344.154435,-0.564483,371502.000000,1362837.000000
1348.603555,-0.561296,371615.000000,1353285.000000
1351.935262,-0.558788,370997.000000,1343254.000000
1355.262569,-0.554128,371791.000000,1331763.000000
1358.585475,-0.551524,370879.000000,1320554.000000
1361.903982,-0.549034,370539.000000,1311802.000000
1365.218088,-0.544460,371657.000000,1301975.000000
1369.630052,-0.540259,372397.000000,1292007.000000
1372.933891,-0.537972,372524.000000,1285661.000000
1376.233331,-0.535857,372314.000000,1278694.000000
1379.528370,-0.534244,371243.000000,1270288.000000
1382.819009,-0.533040,369231.000000,1259906.000000
1386.105248,-0.531267,367705.000000,1249586.000000
1389.387087,-0.527630,367073.000000,1237035.000000
1393.756027,-0.523238,365715.000000,1220060.000000
1397.027599,-0.518322,365152.000000,1204469.000000
1400.294771,-0.512393,365097.000000,1187959.000000
1403.557542,-0.506327,364333.000000,1169029.000000
1406.815914,-0.498060,365413.000000,1150387.000000
1410.069885,-0.489291,365734.000000,1128383.000000
1413.319456,-0.480737,364947.000000,1103993.000000
1417.645373,-0.467587,365539.000000,1072805.000000
1420.884678,-0.459084,365230.000000,1051116.000000
1424.119582,-0.449495,365533.000000,1029014.000000
1427.350086,-0.442975,364906.000000,1011943.000000
1430.576190,-0.435294,365583.000000,996048.000000
1433.797894,-0.428772,365648.000000,981375.000000
1437.015198,-0.423427,365698.000000,969504.000000
1441.298091,-0.418576,364890.000000,956616.000000
1444.505128,-0.414898,364741.000000,948163.000000
1447.707765,-0.411879,364393.000000,940695.000000
1450.906001,-0.409375,363044.000000,931825.000000
1454.099838,-0.406712,362635.000000,925085.000000
1457.289274,-0.404475,361653.000000,917840.000000
1461.535011,-0.400350,360303.000000,905769.000000
1464.714180,-0.399599,358064.000000,898585.000000
1467.888950,-0.397452,356949.000000,891370.000000
1471.059319,-0.394975,355912.000000,883725.000000
1474.225288,-0.393892,353737.000000,876138.000000
1477.386857,-0.392672,352477.000000,870569.000000
1480.544025,-0.392727,349693.000000,863802.000000
1484.746739,-0.392279,347943.000000,858592.000000
1487.893641,-0.393653,344781.000000,853485.000000
1491.036142,-0.394213,342531.000000,849010.000000
1494.174244,-0.395026,340170.000000,844738.000000
1497.307945,-0.396259,337701.000000,840991.000000
1500.437247,-0.399724,334446.000000,839557.000000
1503.562148,-0.400978,331876.000000,835514.000000
1507.721838,-0.404738,327918.000000,832728.000000
1510.836473,-0.407139,324967.000000,829810.000000
1513.946707,-0.409344,321718.000000,825695.000000
1517.052541,-0.410538,319073.000000,821161.000000
1520.153975,-0.412113,315575.000000,815108.000000
1523.251008,-0.414775,311252.000000,808885.000000
1527.373542,-0.416995,306492.000000,800597.000000
1530.460309,-0.418257,302471.000000,792394.000000
1533.542676,-0.418424,298873.000000,783268.000000
1536.620642,-0.419170,294593.000000,773379.000000
1539.694209,-0.419790,290524.000000,763787.000000
1542.763375,-0.421170,285805.000000,753772.000000
1545.828141,-0.421360,281854.000000,743676.000000
1549.907652,-0.422816,274841.000000,727608.000000
1552.962151,-0.422994,270515.000000,716449.000000
1556.012250,-0.425275,265203.000000,706079.000000
1559.057949,-0.425384,260042.000000,692513.000000
1562.099248,-0.424882,255973.000000,680888.000000
1565.136147,-0.426501,250523.000000,668881.000000
1568.168646,-0.426554,245616.000000,655859.000000
1572.205133,-0.427669,238774.000000,639228.000000
1575.227365,-0.427527,234179.000000,626722.000000
1578.245196,-0.429852,228934.000000,615974.000000
1581.258628,-0.431622,223478.000000,603750.000000
1584.267659,-0.433797,218239.000000,592556.000000
1587.272290,-0.435003,213357.000000,580911.000000
1591.271621,-0.436597,206678.000000,564796.000000
1594.265985,-0.441155,200655.000000,554121.000000
1597.255949,-0.441763,196105.000000,542315.000000
1600.241513,-0.444717,191413.000000,532952.000000
1603.222677,-0.447522,186271.000000,521996.000000
1606.199441,-0.449465,181567.000000,511095.000000
1609.171805,-0.452146,176656.000000,500350.000000
1613.128112,-0.454871,170106.000000,484831.000000
1616.090209,-0.458324,165195.000000,474592.000000
1619.047905,-0.459362,160661.000000,462671.000000
1622.001202,-0.466339,154762.000000,452901.000000
1624.950098,-0.470558,149284.000000,441135.000000
1627.894595,-0.474758,144304.000000,430563.000000
1630.834691,-0.481030,138573.000000,419477.000000
1634.747975,-0.488603,131373.000000,404678.000000
1637.677804,-0.493932,126061.000000,393109.000000
1640.603233,-0.502261,120043.000000,381591.000000
1643.524262,-0.511436,114222.000000,370839.000000
1646.440891,-0.516142,109595.000000,359694.000000
1649.353120,-0.524449,104146.000000,348411.000000
1653.229247,-0.511205,102337.000000,332076.000000
1656.131209,-0.506803,100118.000000,321599.000000
1659.028770,-0.512062,95076.000000,309124.000000
1661.921932,-0.499740,93881.000000,296700.000000
1664.810693,-0.498437,90392.000000,284818.000000
1667.695055,-0.498008,85969.000000,270614.000000
1670.575016,-0.493387,82225.000000,256089.000000
1674.408120,-0.472374,78925.000000,234201.000000
1677.277814,-inf,0.000000,216004.000000
1680.143108,-inf,0.000000,193727.000000
1683.004002,nan,-2147483648.000000,171763.000000
1685.860496,nan,-2147483648.000000,150849.000000
1688.712590,nan,-2147483648.000000,127967.000000
1691.560283,nan,-2147483648.000000,108816.000000
1695.350364,nan,-2147483648.000000,85387.000000
1698.187790,nan,-2147483648.000000,71692.000000
1701.020817,-inf,0.000000,59560.000000
